Date,a1,sigma1,a2,sigma2,p12,p21,p1_final,p2_final
2010-12-31 00:00:00-05:00,-0.0001770953822602872,0.01559351270887831,0.0001256595212665501,0.03313180970131368,0.05568995155987881,0.13742760698657383,0.9421767254778596,0.05782327452214045
2011-01-03 00:00:00-05:00,-0.00011860025204202695,0.015546984461715983,0.00010265239691017955,0.033061034620519285,0.05590627139039397,0.1367865028853389,0.9479559721088323,0.05204402789116768
2011-01-04 00:00:00-05:00,-6.61868162763934e-05,0.015571687557773092,7.116079718812541e-05,0.03305963182393668,0.05581811536157929,0.1365668553424326,0.942713658292995,0.05728634170700495
2011-01-05 00:00:00-05:00,-1.5545408952964775e-05,0.015541361244511326,4.7178556692581885e-05,0.03301650581976478,0.056103659082077414,0.136095872788598,0.9485762123831073,0.051423787616892654
2011-01-06 00:00:00-05:00,-2.61492424938031e-05,0.015520555996509419,3.065357639733319e-05,0.03298676505418488,0.056685049576592865,0.1357783890751427,0.9506875993371482,0.04931240066285189
2011-01-07 00:00:00-05:00,7.388975318717965e-05,0.015453716869752443,-7.001999568275921e-06,0.03287329761780227,0.05793698589388354,0.13522438557826605,0.9490113815365643,0.050988618463435734
2011-01-10 00:00:00-05:00,0.0003388417672957244,0.01532958079418181,-4.290836944094927e-05,0.03280570044432657,0.057292628363983175,0.13368297249644592,0.9314255265886109,0.06857447341138911
2011-01-11 00:00:00-05:00,0.00022404735484360665,0.015142608566156554,-2.331203703820204e-05,0.03265056661706219,0.057690221037244666,0.13195684194491658,0.9389360477106086,0.06106395228939153
2011-01-12 00:00:00-05:00,0.0003440647637006968,0.015246217543091098,-8.242553892146324e-05,0.03270226899178884,0.0570112756384532,0.13182304394262168,0.9117588256338488,0.08824117436615117
2011-01-13 00:00:00-05:00,0.0005636121919782137,0.015322033637899125,-0.00017099088992509806,0.032741387057607554,0.05662578615845052,0.13168548431070876,0.8901542719292268,0.10984572807077325
2011-01-14 00:00:00-05:00,0.0005119490917390544,0.015332808277761803,-0.0002010020955164758,0.03269928486990659,0.05626208961969051,0.12998278995211401,0.9198782552777784,0.0801217447222215
2011-01-18 00:00:00-05:00,0.0007621388094608044,0.01548633872057968,-0.00026962655960076825,0.03270870369152855,0.055993835744843574,0.12868158746439026,0.8292776284890527,0.17072237151094732
2011-01-19 00:00:00-05:00,0.0009292118476271627,0.015569870230215506,-0.0003676943204173884,0.03254939142389159,0.05535505394267083,0.12307110126290652,0.8081137082929004,0.19188629170709956
2011-01-20 00:00:00-05:00,0.0009673987857284313,0.015492817899765123,-0.0003082932303129836,0.03268897797895565,0.05503675735610755,0.1262871857397894,0.8442938574423289,0.1557061425576711
2011-01-21 00:00:00-05:00,0.0009549217972711682,0.015461285863083454,-0.00040037742435374154,0.032535675459082584,0.05374567187977785,0.12007795401755109,0.9034047555425957,0.09659524445740424
2011-01-24 00:00:00-05:00,0.0010747343477618527,0.015361272954263091,-0.00036636208565969663,0.03251120634074733,0.053468897898585305,0.11884597999650172,0.9320109777684386,0.06798902223156147
2011-01-25 00:00:00-05:00,0.001129584838685729,0.015305292555627245,-0.00036227507148121343,0.032378353592502726,0.051916356402617006,0.11100227885846556,0.9454707498215189,0.05452925017848109
2011-01-26 00:00:00-05:00,0.001016544958465014,0.015394335624062786,-0.00025007190451574517,0.03255638338116513,0.04948755675121033,0.1062492755030691,0.9157630542908469,0.08423694570915315
2011-01-27 00:00:00-05:00,0.0011580204896250916,0.015509399395453784,-0.00013997660630560963,0.03291731656571369,0.048186920225216964,0.10581702574204892,0.8753699991613304,0.12463000083866957
2011-01-28 00:00:00-05:00,0.0012650048112740505,0.01550312661679912,-0.0011431613668797618,0.032962312309914366,0.05132762313157628,0.12856626305067367,0.9143759835697283,0.08562401643027165
2011-01-31 00:00:00-05:00,0.0011865319495173016,0.015446462061578953,-0.0012481852361758302,0.03291529197278431,0.050436488689536325,0.12288845892751263,0.9317303850039736,0.06826961499602631
2011-02-01 00:00:00-05:00,0.001360908926417458,0.015670823711300533,-0.0012368244985355703,0.0332092034175414,0.050107192783293314,0.12030951141265825,0.7082021300138827,0.29179786998611723
2011-02-02 00:00:00-05:00,0.0014059631501572999,0.015670418431394193,-0.0007362305045468112,0.03378516947321904,0.05204579575403272,0.1456516919036848,0.8324892218610133,0.16751077813898665
2011-02-03 00:00:00-05:00,0.001419522186654786,0.015652391298187893,-0.0007845597215986706,0.03374347038000486,0.04986956606791236,0.1363192265614496,0.9039563779163707,0.09604362208362933
2011-02-04 00:00:00-05:00,0.0014184268082560992,0.015618042980071228,-0.0006321978792548928,0.033987454387401805,0.048533013586971555,0.13399338649345566,0.9372837165220613,0.06271628347793867
2011-02-07 00:00:00-05:00,0.0014040151910726796,0.01557180177047355,-0.0011900234435551623,0.03409490993130319,0.04851628326178407,0.13736330728677126,0.9511585791026858,0.048841420897314185
2011-02-08 00:00:00-05:00,0.001433207186476924,0.015750630542744684,-0.0005085331967601506,0.033608732798836145,0.0373623734384706,0.12407453161618509,0.9551343571742811,0.044865642825718935
2011-02-09 00:00:00-05:00,0.0012206106120153449,0.015561352592195647,-0.00047576707580160196,0.03348610967546044,0.03745321032418904,0.12309609305933022,0.9583263149246296,0.04167368507537037
2011-02-10 00:00:00-05:00,0.0011732913098624496,0.015573181993820722,-0.00043642518129820816,0.03346902626883379,0.03749677892461585,0.12278945526618876,0.9598493482466313,0.04015065175336871
2011-02-11 00:00:00-05:00,0.0010729557203792812,0.015476263930408685,-0.0003937027683885111,0.03336556633219496,0.03785704553567198,0.12215905451544251,0.9653795137243074,0.0346204862756926
2011-02-14 00:00:00-05:00,0.0010153105374061432,0.015482796204244583,-0.00036209988579980444,0.03331254900780887,0.03814360026853605,0.12158169873301436,0.9613952410743689,0.03860475892563108
2011-02-15 00:00:00-05:00,0.0010233752523682034,0.015468607291362828,-0.00039375993999305104,0.033286884694891036,0.03847030584415885,0.1213016095653382,0.9530624601077806,0.04693753989221935
2011-02-16 00:00:00-05:00,0.0009520511584343418,0.015455013100984641,-0.0004182012209768788,0.03319685789262781,0.03958044994778638,0.12104256639439047,0.9464535340137175,0.05354646598628266
2011-02-17 00:00:00-05:00,0.001038473699537359,0.015312592587198862,-0.0003209064778867965,0.03310611293245667,0.038929719347764874,0.11932470119999879,0.9565099190596819,0.043490080940318095
2011-02-18 00:00:00-05:00,0.0012482379469555104,0.015189156356334024,-0.0003557497583074839,0.032972343046703816,0.03882463567302231,0.11760689855252836,0.9567699942961302,0.04323000570386981
2011-02-22 00:00:00-05:00,0.0012009960187227696,0.015224949116857763,1.814058549408166e-05,0.03300756388359311,0.043199897399112876,0.1235992906098064,0.4979373640697075,0.5020626359302924
2011-02-23 00:00:00-05:00,0.0011893692964727665,0.015337955669526775,-0.00013854010183161387,0.033078807757017555,0.04090029564942166,0.12279575265000758,0.7199306089415483,0.28006939105845163
2011-02-24 00:00:00-05:00,0.000960057238353554,0.015093325393104403,0.0012504939659528926,0.03297067369019997,0.050008182223060894,0.1255014943100157,0.021013908732365905,0.978986091267634
2011-02-25 00:00:00-05:00,0.0009348142473002205,0.015150357043370683,0.0006932187393921402,0.0330834263136692,0.049363849476287615,0.12204413327236696,0.02938888353437645,0.9706111164656235
2011-02-28 00:00:00-05:00,0.0009342601069697412,0.015206906300199056,0.0008737701387713635,0.032907811647655584,0.05003672741837665,0.12409289857041059,0.21912970665049175,0.7808702933495083
2011-03-01 00:00:00-05:00,0.000886931459955906,0.015215469683407855,0.0009175015976256157,0.032902814591046756,0.05222115724413509,0.13309507574873566,0.5002438959678951,0.49975610403210474
2011-03-02 00:00:00-05:00,0.0009029887482791835,0.015271459040112017,0.00043844590863630707,0.03251801006159979,0.04989003287212516,0.11411658360525223,0.12379875487096806,0.8762012451290319
2011-03-03 00:00:00-05:00,0.0007516633667243793,0.01520194155139186,0.0005858480993070038,0.03237400770334838,0.05136449986656743,0.11934123854754787,0.3683706147534829,0.6316293852465171
2011-03-04 00:00:00-05:00,0.0008115652381854184,0.015293321614080311,0.0007424218952191697,0.03233387360886933,0.05148919829842041,0.11964853846414146,0.4274475601328692,0.5725524398671308
2011-03-07 00:00:00-05:00,0.0007126941570015454,0.015380974605653321,0.0006742474558777557,0.03242415808554392,0.05199569147356948,0.12438229918779896,0.5692096029225869,0.4307903970774131
2011-03-08 00:00:00-05:00,0.0006142102746248754,0.015439807243991079,0.0007027243339361858,0.03265816700372131,0.053018713259064626,0.13307478144064872,0.7562237236907511,0.24377627630924895
2011-03-09 00:00:00-05:00,0.0005784995914099832,0.015526150345736931,0.0006351321014349191,0.032662037730877,0.053154939070349225,0.1331116995332054,0.7366664244464771,0.2633335755535228
2011-03-10 00:00:00-05:00,0.0005504758470209526,0.015565926374711684,0.0006830882437370609,0.03282821187563971,0.05338304985064013,0.13762540349614613,0.8557948063321399,0.1442051936678601
2011-03-11 00:00:00-05:00,0.0004870750544309226,0.015703707442509648,0.000544323157227308,0.032661762027400794,0.05320378962760915,0.13329319179776486,0.7338997110113538,0.2661002889886462
2011-03-14 00:00:00-04:00,0.0007101237996532009,0.015741300903627478,0.00044514598519484105,0.032182613385862265,0.05297619304313653,0.12218666666727408,0.6157819135780853,0.3842180864219147
2011-03-15 00:00:00-04:00,0.0008137143157531797,0.01572840086569239,0.0004104733126096762,0.0321229224486928,0.05248494975527838,0.11882621707512613,0.7552592237266701,0.2447407762733299
2011-03-16 00:00:00-04:00,0.0008347475270413873,0.015714764725716965,0.0005672517805891019,0.03256229146559129,0.0520800520635715,0.12804247136591868,0.8479732099105172,0.1520267900894828
2011-03-17 00:00:00-04:00,0.0008475292965696216,0.015652035995926142,0.0006440157687874335,0.032549818104852316,0.05213798122750297,0.12759009057512685,0.8915548309431706,0.10844516905682935
2011-03-18 00:00:00-04:00,0.0010361255955621798,0.0156586966397847,0.0007897512422480178,0.031706764390629895,0.053173055813623034,0.10781170201467075,0.4888039401784339,0.5111960598215661
2011-03-21 00:00:00-04:00,0.0009290477279185202,0.015781796917199775,0.0005403024969813902,0.032429999144142234,0.05209938653202873,0.12136778506846359,0.7076445180516259,0.2923554819483742
2011-03-22 00:00:00-04:00,0.0010755323180036225,0.015718270055213826,0.0008608141706070159,0.031987352395962225,0.05367433034369469,0.11343694431452536,0.4967272928111728,0.5032727071888272
2011-03-23 00:00:00-04:00,0.0013358602134944523,0.015848121090346643,0.0009109552479613538,0.03291201858559263,0.052974067960508686,0.1340869339314096,0.6754529884585256,0.3245470115414743
2011-03-24 00:00:00-04:00,0.0013375740811359526,0.01582942290891884,0.0009689132248885427,0.032858786729839475,0.0523357454342969,0.13034816575344538,0.8081057599372486,0.1918942400627513
2011-03-25 00:00:00-04:00,0.0013681841790092986,0.01574462430716904,0.0004940266290106413,0.03344800662406213,0.052831904609201494,0.14792857770304027,0.8837094897436681,0.11629051025633194
2011-03-28 00:00:00-04:00,0.001440343482420342,0.015777318640372226,0.0005010293324712934,0.03330532888433812,0.051544245581756076,0.13965874105154405,0.8936007821965889,0.10639921780341106
2011-03-29 00:00:00-04:00,0.0014830560197597248,0.0157437401422532,0.0005694239908219592,0.03325385671264119,0.049666294515654755,0.13058550691201015,0.9259905133145946,0.07400948668540548
2011-03-30 00:00:00-04:00,0.0015117492572438037,0.015687240500017588,0.0002025909285274034,0.03345132589682899,0.04964488647430475,0.1351743246699496,0.9407913159159131,0.059208684084086756
2011-03-31 00:00:00-04:00,0.0014409622696027165,0.015619952578179991,-2.383403426510983e-05,0.03357562961125214,0.04952783636335536,0.13563026136042317,0.949829090922664,0.050170909077336116
2011-04-01 00:00:00-04:00,0.0013991043221162742,0.015610300849324799,3.694034199269189e-05,0.03387752142609526,0.048068518277267165,0.132258022980302,0.9538936871786425,0.0461063128213575
2011-04-04 00:00:00-04:00,0.001565964980436056,0.015805720437854203,-0.0017350518038802712,0.03362293055306199,0.03772504939382189,0.12510251212395285,0.965866418274273,0.03413358172572694
2011-04-05 00:00:00-04:00,0.0014183777646605655,0.01564121164788702,-0.0017855927193441714,0.03362457505728816,0.037654322887993676,0.12569714275835697,0.968248184695916,0.031751815304084045
2011-04-06 00:00:00-04:00,0.0014619806497079726,0.015569508358353901,-0.0017697545777543271,0.03357372553335323,0.037862018154655314,0.1254732973967313,0.9570672987167196,0.04293270128328044
2011-04-07 00:00:00-04:00,0.0012230151144192803,0.015557146019905998,-0.0017065604894313182,0.03363239097716164,0.03794956003109758,0.12629104336972624,0.9346101712836319,0.0653898287163681
2011-04-08 00:00:00-04:00,0.0011947192061698068,0.015553201945878366,-0.0016574494325935982,0.03360424117092367,0.038163993278086145,0.12613533633479543,0.9541382946620813,0.04586170533791868
2011-04-11 00:00:00-04:00,0.0010870460827726823,0.015460118428151296,-0.0016125341022940236,0.033517414464169754,0.038713709916126826,0.12616061387954883,0.9627830588324499,0.03721694116755017
2011-04-12 00:00:00-04:00,0.0009256031503778186,0.015493983233329449,-0.0015701911144512196,0.03350582551458845,0.03921950852365539,0.1261061405991126,0.9406737692865068,0.059326230713493244
2011-04-13 00:00:00-04:00,0.0009267690555546059,0.015540133307849919,-0.001644340952168936,0.03360173506454181,0.039329227574221255,0.12778678485706016,0.8056304726753006,0.19436952732469934
2011-04-14 00:00:00-04:00,0.000940984477133575,0.015572573878107874,-0.0015318560655607828,0.033563304788092226,0.0391771142483105,0.12634530770520083,0.8702148456680162,0.1297851543319838
2011-04-15 00:00:00-04:00,0.0007782899030413584,0.0153706155957387,-0.00153275655830339,0.033577078666130585,0.03905425293194974,0.1282443742772244,0.9268066346702485,0.07319336532975149
2011-04-18 00:00:00-04:00,0.0007723124519919621,0.015370577003172963,-0.0015186448172376595,0.03355340622579702,0.03910746609189675,0.12707378567693722,0.951286539582218,0.04871346041778199
2011-04-19 00:00:00-04:00,0.000661689790703598,0.015363998771169004,-0.0014935403666500732,0.03341953133157995,0.038872942068596206,0.12386479541260158,0.9521713779781839,0.04782862202181624
2011-04-20 00:00:00-04:00,0.0006412687660038594,0.015315999038719946,-0.0015336654926235236,0.0331352467895225,0.03836169906173269,0.1163248287102891,0.9602396446720391,0.03976035532796078
2011-04-21 00:00:00-04:00,0.0008369570849630578,0.015349716195330952,-0.0015694568139441936,0.032979195944224715,0.0372708280774409,0.1083760169965007,0.9351853146570629,0.06481468534293698
2011-04-25 00:00:00-04:00,0.0009589834059446319,0.015175256592758675,-0.0014782296921756549,0.03345100850260133,0.03871737431998788,0.12352459238344167,0.955792547820532,0.044207452179468
2011-04-26 00:00:00-04:00,0.0008311281849432307,0.015207945326414316,-0.0013990153554782326,0.033317771200465626,0.037708818615359796,0.11640521177605495,0.9482786176450865,0.05172138235491355
2011-04-27 00:00:00-04:00,0.0008453515485641097,0.015188820118949198,-0.0015048252673965483,0.03326656727707736,0.03668691016396481,0.11104919333698288,0.9534730008391279,0.046526999160872204
2011-04-28 00:00:00-04:00,0.0008384572041295835,0.015161020451863962,-0.0015981041790624768,0.0332575979087892,0.035130205678418396,0.10261340946375475,0.9649267373682353,0.03507326263176468
2011-04-29 00:00:00-04:00,0.0008459400546365972,0.015129952713629744,-0.0018390027472671266,0.03347216203246686,0.034097550727329604,0.0993106137806491,0.9705105589959986,0.029489441004001384
2011-05-02 00:00:00-04:00,0.0008871016499292216,0.015092195107620011,-0.0013674056988683375,0.03361366406353718,0.034249009617746295,0.10205692797756209,0.969195808822473,0.030804191177526856
2011-05-03 00:00:00-04:00,0.0006873328435316517,0.015128505568797721,-0.0003128188891172169,0.033599796022642285,0.036378751493269544,0.11516984611763736,0.9428811560646401,0.05711884393535993
2011-05-04 00:00:00-04:00,0.0005493619727935385,0.015228175099499102,0.00015889604504418323,0.034016306461515954,0.03683999760947067,0.12288463734777348,0.8860154704224661,0.11398452957753391
2011-05-05 00:00:00-04:00,0.0004540444087377268,0.015260144404807914,0.00045010767711309416,0.034379340451598274,0.03615883932628887,0.12232064041766876,0.8998345089928192,0.10016549100718077
2011-05-06 00:00:00-04:00,0.00027353123755704563,0.015466250770846839,-0.0003687871555050795,0.03560199881641744,0.03631059246050004,0.16371240751818952,0.9154237441616843,0.08457625583831577
2011-05-09 00:00:00-04:00,0.0004914459978663999,0.015538046870383638,-0.0003287258870149581,0.03544332266420738,0.03642602191077836,0.15779139457143812,0.8225089515516636,0.17749104844833646
2011-05-10 00:00:00-04:00,0.0004175919126876228,0.015464678925223484,3.499557001387751e-05,0.035544210067415545,0.040054363836077404,0.17198425108805013,0.5345335012626371,0.46546649873736295
2011-05-11 00:00:00-04:00,0.000501085503271878,0.01554113284071172,-0.00037094085857421644,0.03549241682131974,0.03740700885856107,0.1627359737307595,0.7743974660084983,0.22560253399150168
2011-05-12 00:00:00-04:00,0.00046376491536380713,0.01543827196367531,-0.0005278996811678404,0.03464371031516442,0.041227274581825936,0.15105312529716478,0.3566237581398244,0.6433762418601756
2011-05-13 00:00:00-04:00,0.00046540344896101537,0.015448857774609748,-0.0002440759482457218,0.035069354015420516,0.040827246903118224,0.1638812927165639,0.6128413185137922,0.38715868148620775
2011-05-16 00:00:00-04:00,0.0004617757059016296,0.015555065766849504,-0.00019704832682993585,0.03552812887582519,0.037809574079146854,0.15812481152820138,0.8216073880532809,0.178392611946719
2011-05-17 00:00:00-04:00,0.00042657901010316197,0.01561335416484656,-9.575960326834812e-05,0.03625381828378414,0.03549348795881734,0.15477309867510403,0.9128688079048695,0.08713119209513055
2011-05-18 00:00:00-04:00,0.0004217099855196256,0.015500562441935043,0.001431450317531974,0.035004402964019986,0.039149442602062504,0.1679871812087836,0.9394186881779429,0.06058131182205703
2011-05-19 00:00:00-04:00,0.00043485257831522476,0.015496448340217187,0.0006020496892445344,0.03534582062564967,0.041169271817929655,0.19824087569634047,0.9567257368355592,0.043274263164440774
2011-05-20 00:00:00-04:00,0.0004700034641290668,0.01534285195029782,0.0010621047327110528,0.03558415688892386,0.043789693933104855,0.21967971132186206,0.963888698100306,0.036111301899694075
2011-05-23 00:00:00-04:00,0.00046738433303227206,0.015317715713015746,0.0009307529635803242,0.03563090085502918,0.042572464720196705,0.2099537990282954,0.9657581635068169,0.034241836493183034
2011-05-24 00:00:00-04:00,0.00034533727906979286,0.015495107387724262,0.0007333757046605344,0.036474234285438153,0.038897607785921356,0.2007681922609324,0.9265227052763517,0.07347729472364835
2011-05-25 00:00:00-04:00,0.0004209756123824603,0.01536633920569169,-0.0009193643072952247,0.034369809716233504,0.046370293577837084,0.230833481927565,0.9157141477356235,0.08428585226437647
2011-05-26 00:00:00-04:00,0.0005033648722393763,0.015375077678153645,-0.0007518454006973132,0.03482273345200724,0.04405184559948745,0.22515358810194885,0.9439848014172334,0.0560151985827666
2011-05-27 00:00:00-04:00,0.0004622524420297173,0.015257974026948623,0.0004665671462671545,0.03456369090197082,0.04744861262429369,0.24214937986282575,0.9580436826921582,0.04195631730784175
2011-05-31 00:00:00-04:00,0.0006238023734742703,0.014855023045470083,-0.0014605882394729418,0.031234203865764035,0.06512534700783147,0.2727549578381825,0.9413655980277426,0.058634401972257465
2011-06-01 00:00:00-04:00,0.0006686459942187854,0.01485349717089199,-0.0019190689529568566,0.03151035922270326,0.06274710150985637,0.26834909864400974,0.9452602472495687,0.05473975275043133
2011-06-02 00:00:00-04:00,-0.0004759208593618727,0.01051754061975844,0.0013981119245665813,0.024865722658431066,0.42445317610803834,0.4824427545918416,0.6928961744306473,0.3071038255693526
2011-06-03 00:00:00-04:00,-0.00038937038654684764,0.01041841666444934,0.0016035582539986658,0.024682451489586622,0.45000590506394667,0.4837516621751882,0.17209153045737693,0.827908469542623
2011-06-06 00:00:00-04:00,-0.0003359008397510287,0.010473856617835701,0.0012178168057128047,0.02464610748372638,0.44443763431443134,0.5044810852284477,0.7091517065987817,0.2908482934012182
2011-06-07 00:00:00-04:00,-0.0003484240561364523,0.010461383204368513,0.0012404838370721673,0.024649876404294727,0.4428795925532344,0.5027808665959507,0.5998118919180765,0.4001881080819236
2011-06-08 00:00:00-04:00,-0.00029790964220464505,0.010646608123179758,0.000723284256636487,0.0245543613594369,0.41319763384781244,0.5014052694698808,0.685949980861643,0.3140500191383569
2011-06-09 00:00:00-04:00,-0.0003036208282975523,0.010621200165276488,0.0007206755665912884,0.024551478143224285,0.41403834650300053,0.5022063223961829,0.6902460220719865,0.3097539779280136
2011-06-10 00:00:00-04:00,-2.6911021991639643e-05,0.010850204922642295,0.0006234886737844135,0.02462853856138773,0.4033399421288998,0.5048925808984562,0.5252219525056603,0.4747780474943397
2011-06-13 00:00:00-04:00,-0.00025044794607647947,0.010632944581342589,0.00048505072745347013,0.024294571806852492,0.43131605211206486,0.4852233174191056,0.1412374457418859,0.858762554258114
2011-06-14 00:00:00-04:00,-0.0002241283016298921,0.01073249076944549,0.0002104650915077179,0.024194328850941194,0.42452136316150885,0.46004519731644994,0.13541771871937103,0.8645822812806291
2011-06-15 00:00:00-04:00,-0.00016905078715754982,0.010799968201474993,0.00020550831849036334,0.024265935445378025,0.4328907478079639,0.4784653776982224,0.6763759305163393,0.32362406948366085
2011-06-16 00:00:00-04:00,-0.0002928003125932258,0.011178089675118531,0.00017340811164136914,0.02439726938697137,0.42398522821801143,0.4930443792962231,0.4248984699374058,0.5751015300625941
2011-06-17 00:00:00-04:00,-0.00040234335549376544,0.011576523657619497,0.00019535230800281616,0.024765262471269166,0.3824548910962347,0.49353690891844737,0.6400412452989286,0.3599587547010714
2011-06-20 00:00:00-04:00,-0.0002766830634500019,0.011667975671870681,-0.0004241876569622909,0.02508584194163773,0.361565763283483,0.5128838753619778,0.7367737228201701,0.2632262771798299
2011-06-21 00:00:00-04:00,-0.0007862519452273685,0.012162509697653416,6.0839091343288434e-05,0.025432145134680274,0.2635966270345099,0.4190355667238261,0.7352290756728029,0.26477092432719707
2011-06-22 00:00:00-04:00,-0.0007339472122819778,0.01173195869452576,0.0012012752306568267,0.02447415961213722,0.38332197079848407,0.47976048257475884,0.6139498727407422,0.3860501272592579
2011-06-23 00:00:00-04:00,0.0003345456718202406,0.015585213366464425,-0.005255153524734079,0.03501737686548548,0.047812015798978404,0.509296813956779,0.9658911592501589,0.03410884074984105
2011-06-24 00:00:00-04:00,0.0001957050704302796,0.01563884117709918,-0.0029333798432259785,0.03648514581097525,0.06052651732253215,0.7939787171575678,0.962622491246783,0.0373775087532169
2011-06-27 00:00:00-04:00,0.00023558509213958287,0.015927256405802347,-0.0030831238324888666,0.04223062379477898,0.03180796994912018,0.787055767001677,0.9745346283657821,0.02546537163421792
2011-06-28 00:00:00-04:00,0.0004173461274245395,0.01595809768878768,-0.003629292427825494,0.042385424154431854,0.030860216129457798,0.7889020903220733,0.9739686680507448,0.026031331949255117
2011-06-29 00:00:00-04:00,0.0005394887460190251,0.01628372700233175,-0.009159505305299508,0.04695721529005953,0.022769076050695287,0.9083383250698136,0.9853257154298514,0.014674284570148568
2011-06-30 00:00:00-04:00,0.0006142127656487487,0.016281472466124238,-0.009390955026752459,0.047272245345905094,0.022369065655807364,0.9039872765662346,0.9917055140661316,0.008294485933868298
2011-07-01 00:00:00-04:00,0.0006091963650000702,0.0162786472837049,-0.009440826163345371,0.04737024174330823,0.022333221987586162,0.8939597856443346,0.9900221236099003,0.00997787639009965
2011-07-05 00:00:00-04:00,0.00030763255116207075,0.01581455084658219,-0.0037993002193179278,0.04258323951037809,0.02923879152096048,0.7437697446111139,0.9817648640320175,0.01823513596798247
2011-07-06 00:00:00-04:00,0.0001882099935041509,0.015641324101690935,-0.002638962935718338,0.04100138678892283,0.03217793281840749,0.7079708448517813,0.9853191017575396,0.01468089824246037
2011-07-07 00:00:00-04:00,0.000174063855904899,0.015652077779118617,-0.0026422435606042235,0.04100977249577677,0.03207244288333719,0.705761889350538,0.9833713843889355,0.016628615611064438
2011-07-08 00:00:00-04:00,0.00023551390344184715,0.015687600046320117,-0.002877997910398988,0.0411401224422244,0.03139066944359493,0.708262630958853,0.9824685161924704,0.01753148380752958
2011-07-11 00:00:00-04:00,0.0001135845089254699,0.015712433587676933,-0.0027783937325108732,0.04134935150824269,0.031121603548074122,0.7110113210094793,0.9782602485569161,0.021739751443083932
2011-07-12 00:00:00-04:00,2.796633381974351e-05,0.015928380280658554,-0.004062446149144218,0.04287868687795178,0.02864560305645691,0.7548634190509658,0.9492925724041108,0.05070742759588916
2011-07-13 00:00:00-04:00,4.1341618194832316e-05,0.01592055764138751,-0.004075315368072248,0.04288757834608814,0.028795475786734803,0.7497135015382587,0.9846967873855991,0.015303212614400916
2011-07-14 00:00:00-04:00,0.00014562870285396586,0.015614559496583962,-0.0021556382326114393,0.041098346956147176,0.03022802761229972,0.670011181230822,0.9860109717865022,0.013989028213497729
2011-07-15 00:00:00-04:00,6.65371451858991e-05,0.015708464582582817,-0.002325266950354085,0.04129087791428099,0.029435781239693922,0.673712150723585,0.9681370633572453,0.031862936642754705
2011-07-18 00:00:00-04:00,1.7989699290801056e-05,0.015621177151680734,0.0008647453985293929,0.03800146022322595,0.042523580282903976,0.6633139344206768,0.5069111078985093,0.4930888921014908
2011-07-19 00:00:00-04:00,0.00013943864051680786,0.01568930078342528,0.00031964292346655824,0.039305076965870024,0.04281191081465462,0.7674131225972685,0.9433783970992848,0.05662160290071527
2011-07-20 00:00:00-04:00,0.0002586840202964505,0.015881154360108687,-0.0005784074286704269,0.040537724515882737,0.038829262704393165,0.8012416198050808,0.9518912988549687,0.04810870114503134
2011-07-21 00:00:00-04:00,0.00028345967902717223,0.015868437156992696,-0.0006235757240804858,0.04057409082083334,0.03879480945449986,0.8015494862164486,0.9811085353156115,0.018891464684388532
2011-07-22 00:00:00-04:00,0.0002988698098369882,0.015886030548351693,-0.0007214958118485986,0.040583479600599076,0.03857026716459859,0.7967450978519051,0.9740061871901096,0.025993812809890465
2011-07-25 00:00:00-04:00,0.00044690201863517906,0.015688915318911704,-0.0002266512585247682,0.03966766823617977,0.04018927288742728,0.7554487215020531,0.9785863988759472,0.021413601124052682
2011-07-26 00:00:00-04:00,0.000433538195567163,0.015689964263124582,-0.00020509365717963953,0.03965689197766254,0.040277010639927564,0.7505902433088661,0.9813114162660841,0.018688583733915905
2011-07-27 00:00:00-04:00,0.00042442960715061796,0.01555801388797296,0.00023152561719005726,0.03779489501064549,0.03848587525605641,0.6002030303535458,0.9802948123038931,0.019705187696106893
2011-07-28 00:00:00-04:00,0.000312490089789749,0.015547964901801329,0.002580866495283622,0.03850086521909337,0.05679341678575805,0.9557104810535925,0.9417048414979403,0.05829515850205964
2011-07-29 00:00:00-04:00,0.0005156214351707377,0.016078698237489815,-0.019256302130041553,0.05209380121151066,0.01508912248576901,0.9843522145251131,0.9950298677856343,0.00497013221436568
2011-08-01 00:00:00-04:00,0.0004957513134305411,0.01610729472378264,-0.02054083432128758,0.052091551802716574,0.014646150758828722,0.9977262065012507,0.9933048171134361,0.006695182886563971
2011-08-02 00:00:00-04:00,0.0004301969179983096,0.01609772495199741,-0.020819435192375255,0.05208864373738042,0.01465706646539843,0.9980446029068298,0.9955427210342656,0.004457278965734501
2011-08-03 00:00:00-04:00,0.0003589075955817608,0.016171786917951087,-0.021841340249476822,0.052273722597961834,0.014125711803098866,0.9999999999990985,0.9868179783712457,0.013182021628754221
2011-08-04 00:00:00-04:00,0.00043276609017771643,0.016066804247043046,-0.020890158718163816,0.05199278018407412,0.014620237175800709,0.988128484998042,0.993831460961166,0.006168539038833825
2011-08-05 00:00:00-04:00,0.0003020588653393625,0.015565010657888187,-0.008955460210306748,0.040682996568057656,0.042319617554714854,0.8214903347486316,0.06534335234602504,0.934656647653975
2011-08-08 00:00:00-04:00,0.000228158654763096,0.015428535380155973,-0.003240513338377243,0.037999548726186994,0.03358965770068656,0.430074957495205,0.1121013873819182,0.8878986126180819
2011-08-09 00:00:00-04:00,0.00041361290342705224,0.015467326416084889,-0.01023313903312522,0.04411133021525368,0.021934057112109988,0.33471237400201903,2.615908382983706e-05,0.9999738409161703
2011-08-10 00:00:00-04:00,0.0005224897535886008,0.015441068269221998,-0.008063003608847347,0.04312086267257741,0.023004354401650186,0.3335635256321297,0.3382357129237328,0.6617642870762672
2011-08-11 00:00:00-04:00,0.0005574467654726892,0.015454319686874406,-0.009483182722242415,0.04190833133799033,0.020704823770003346,0.2527407583990385,0.056248121327401104,0.943751878672599
2011-08-12 00:00:00-04:00,0.0005337980013318826,0.015501312312224597,-0.0048287647272113945,0.04561100469252493,0.018928084977637226,0.22169855835632896,0.0001459893051154005,0.9998540106948846
2011-08-15 00:00:00-04:00,0.0005017640934098796,0.015491792269877964,-0.004173184595488687,0.044655534785851554,0.02020693417851543,0.24355880065232954,0.4402316915746657,0.5597683084253343
2011-08-16 00:00:00-04:00,0.0006495628108549624,0.015483376598269564,-0.0036243632932334902,0.04425047274799225,0.020667586961034448,0.24966450422119307,0.6262620728369992,0.37373792716300075
2011-08-17 00:00:00-04:00,0.0006832363584425876,0.015466667918853363,-0.0039206529582742,0.0441432055308113,0.021073333443627,0.2602588340040511,0.7927562998670301,0.20724370013296994
2011-08-18 00:00:00-04:00,0.0006648658401833916,0.015477952626595806,-0.004064596765321549,0.044422410888138905,0.021481829213523283,0.2737825296399628,0.9338255069637803,0.06617449303621965
2011-08-19 00:00:00-04:00,0.0007123946070108951,0.015489011182241988,-0.0064690916472295405,0.041777893685707314,0.02009785020839348,0.1609920317230316,0.0024374406243398536,0.9975625593756602
2011-08-22 00:00:00-04:00,0.0008357519584385879,0.015326078088811014,-0.006034693767351382,0.041261712537019435,0.020946013337044246,0.180195361324998,0.37543641554540647,0.6245635844545935
2011-08-23 00:00:00-04:00,0.0008488768037349537,0.015303613904013134,-0.006066707449029106,0.041016349576331365,0.022202732960407395,0.19573659455536707,0.6381858744275007,0.3618141255724993
2011-08-24 00:00:00-04:00,0.000977295972278292,0.015365991646699141,-0.005293917402093237,0.040388765885778784,0.021941328208782123,0.17832330124156975,0.5455771238216474,0.45442287617835264
2011-08-25 00:00:00-04:00,0.0008898530900951277,0.015255204199572086,-0.005563239740317902,0.040841028432754105,0.022768006578454306,0.20254453218128973,0.8218032188853394,0.17819678111466056
2011-08-26 00:00:00-04:00,0.000909048052128167,0.015234318624682283,-0.0056289313260856795,0.040818746132696815,0.023077441916654107,0.2066223951146406,0.8709081261441874,0.12909187385581258
2011-08-29 00:00:00-04:00,0.0010168446428254934,0.015266176264182836,-0.005622098786781931,0.040981304553118804,0.02345552916749888,0.21235658963648435,0.9276180981574847,0.07238190184251533
2011-08-30 00:00:00-04:00,0.0009492263903964964,0.015125766880251761,-0.005639117882926366,0.04093890039534928,0.023586021637005104,0.21523539173676,0.9492223326055272,0.05077766739447285
2011-08-31 00:00:00-04:00,0.0010090045229999478,0.015129399103937017,-0.005734076285103849,0.04102258234222236,0.02364209750388379,0.21779977215881208,0.975836754275172,0.024163245724827895
2011-09-01 00:00:00-04:00,0.0009869205721395838,0.015117601153167253,-0.005740738907216141,0.04102078753153533,0.023774565084944337,0.21866540963259076,0.9841524228909454,0.015847577109054586
2011-09-02 00:00:00-04:00,0.0010092660198065292,0.015083224384587585,-0.005701923121097653,0.04097826533868949,0.02396766582456684,0.2192101952795033,0.9799919440277396,0.020008055972260363
2011-09-06 00:00:00-04:00,0.0007937623310511369,0.015218616117150651,-0.0058291664405090956,0.04099724117351685,0.024435257604647504,0.22035665324591433,0.8645847589994614,0.1354152410005385
2011-09-07 00:00:00-04:00,0.0007615147322010336,0.015246695938872902,-0.005773927180679451,0.04101360249397101,0.02431857099106241,0.22047198525162212,0.9153141886830077,0.08468581131699236
2011-09-08 00:00:00-04:00,0.0007876805801179134,0.01515605069575249,-0.004895118036431884,0.039896626085252664,0.027997472210883285,0.21531191409264253,0.4992564955399085,0.5007435044600916
2011-09-09 00:00:00-04:00,0.0007355965645114515,0.015244578119456361,-0.0051835772787559645,0.03998028144409271,0.027122937375817755,0.21872244817007283,0.7074586165102353,0.2925413834897646
2011-09-12 00:00:00-04:00,0.0007850250314439563,0.015023483989064914,-0.0056452533442420336,0.03775219265668284,0.03164953067325027,0.18648802657821914,0.08596820196877879,0.9140317980312213
2011-09-13 00:00:00-04:00,0.0008171111975565702,0.015084464097654399,-0.005387558299699879,0.03767185129106816,0.03230054955435912,0.1994678294629368,0.4630030279644355,0.5369969720355646
2011-09-14 00:00:00-04:00,0.0008654136567040212,0.015122090587305789,-0.00543418680828179,0.03794690533719447,0.0333356315801446,0.21806501334474665,0.7753100855361776,0.22468991446382242
2011-09-15 00:00:00-04:00,0.00102116538457449,0.015037026866445933,-0.005457898481197074,0.03795938521265462,0.03456677677742614,0.22817718402616893,0.900675089378397,0.0993249106216029
2011-09-16 00:00:00-04:00,0.001222858875930703,0.015124676241802294,-0.005350292248137635,0.0378416712259693,0.03437497643954463,0.2231639422821361,0.8341035412472417,0.16589645875275819
2011-09-19 00:00:00-04:00,0.0011184675206844068,0.015058345691873446,-0.0054116580773783795,0.037930696400854065,0.034583014188255795,0.22922682637784153,0.9297295449948803,0.07027045500511969
2011-09-20 00:00:00-04:00,0.0009458530291582105,0.015206553222207925,-0.00542070860636138,0.03801954200487767,0.03414783778925626,0.22705667528339699,0.8571874770803044,0.1428125229196955
2011-09-21 00:00:00-04:00,0.0009413163153632675,0.015216294782627713,-0.005405671625129718,0.038093767692397466,0.03383075989591867,0.22931676165899592,0.931726746657665,0.06827325334233492
2011-09-22 00:00:00-04:00,0.0008045322580325693,0.01505496136880362,-0.005524215821314467,0.036304521712723165,0.03942920223773819,0.20950476936638504,0.34734345839780884,0.6526565416021911
2011-09-23 00:00:00-04:00,0.0009893715691136227,0.015012964282211636,-0.008305174482235859,0.03795497752074785,0.03941688679870183,0.2009059944441129,5.800684619103201e-06,0.9999941993153809
2011-09-26 00:00:00-04:00,0.0009693923347488286,0.015081957631414587,-0.0091079399955839,0.03770027263488568,0.037717474220525404,0.18496600666584023,0.02106863605644021,0.9789313639435597
2011-09-27 00:00:00-04:00,0.0008479469254949995,0.015017235475293877,-0.007567049193437365,0.037675265668300706,0.03701996078984406,0.17038550871835803,0.039938239581012565,0.9600617604189875
2011-09-28 00:00:00-04:00,0.0009014840999392469,0.015016080012441441,-0.006716349855719181,0.03737053402644961,0.037647831357518,0.1675243100657603,0.19347363924486483,0.8065263607551352
2011-09-29 00:00:00-04:00,0.0007328697861369444,0.01483509734636829,-0.007554898015579629,0.03733324961300635,0.034944467700773266,0.14503373917222342,0.001893456585371209,0.9981065434146288
2011-09-30 00:00:00-04:00,0.0007539666861488339,0.014838943234161114,-0.007540866776709935,0.03701438775076006,0.03648483281204784,0.15296094065631752,0.28567285402885234,0.7143271459711477
2011-10-03 00:00:00-04:00,0.0006746117319476672,0.014864010744003295,-0.007929488359862374,0.0364405472887233,0.03385399744482883,0.12998280742167823,0.05946142405298778,0.9405385759470122
2011-10-04 00:00:00-04:00,0.0006288349303988132,0.014894575397990618,-0.008528361270445973,0.03620996222305631,0.032825344985862454,0.12135292394707882,0.028252594556280673,0.9717474054437193
2011-10-05 00:00:00-04:00,0.0005734973486128712,0.015043278101241717,-0.007073823885947856,0.03853827831611529,0.031025747968514455,0.1196761791660155,1.2784871597920475e-05,0.9999872151284022
2011-10-06 00:00:00-04:00,0.0005082480586578998,0.0150944768349146,-0.005987797155552176,0.03878871656767026,0.03040513279669176,0.11447940515803735,0.014634082801031576,0.9853659171989684
2011-10-07 00:00:00-04:00,0.0005155851090679312,0.015144246966815588,-0.005449050209350043,0.038562433391831755,0.030513391696260547,0.11401816139880536,0.14187299145664067,0.8581270085433594
2011-10-10 00:00:00-04:00,0.0005418201937667491,0.015193599118844122,-0.006192398847371079,0.03853330659780836,0.029226871673697138,0.1036893097451785,0.01031672119683685,0.9896832788031632
2011-10-11 00:00:00-04:00,0.000516650534966029,0.015287676897581795,-0.004936513677837386,0.03954219375310191,0.02839052672549444,0.10086435921526948,0.000608432502325314,0.9993915674976747
2011-10-12 00:00:00-04:00,0.0005128496190154153,0.015312256959843545,-0.004693377888088677,0.03922509716442026,0.029119646709809134,0.10468377091835929,0.21457313886549054,0.7854268611345095
2011-10-13 00:00:00-04:00,0.0004928383074345521,0.015306954023384741,-0.0046109972917391445,0.03920274461485879,0.03051908026949653,0.11432047290514157,0.5059520686282826,0.49404793137171743
2011-10-14 00:00:00-04:00,0.0004143206041519443,0.01527573119051777,-0.004738585357257949,0.03935251394267279,0.03201641272575839,0.12501913407185655,0.756013535862691,0.24398646413730884
2011-10-17 00:00:00-04:00,0.0005069004688107968,0.015319487441396658,-0.0034530668908048447,0.03835045352885276,0.028992874907794917,0.09229981269103171,0.1125258668563606,0.8874741331436394
2011-10-18 00:00:00-04:00,0.00045045977703027807,0.015350246821854647,-0.003792418219854938,0.03801334755797135,0.02854156416623732,0.08671292974878564,0.08278554014971767,0.9172144598502823
2011-10-19 00:00:00-04:00,0.0005088317860870794,0.015354144814368269,-0.002726138603634473,0.03847379382207203,0.027828954315502454,0.08125709437106622,0.0018327553147914869,0.9981672446852086
2011-10-20 00:00:00-04:00,0.0006028395706579236,0.015341748851724455,-0.0023375329971190855,0.038150350606892196,0.027968471350287856,0.08039334731071388,0.09643982756221046,0.9035601724377895
2011-10-21 00:00:00-04:00,0.0006024212770166918,0.015371064667807226,-0.002418287807718805,0.03790578840713555,0.028707766902768102,0.08397062394600709,0.32114337750443794,0.678856622495562
2011-10-24 00:00:00-04:00,0.0006984440889377757,0.015378936985285264,-0.0017114570072039607,0.03747935283719146,0.026854101145253054,0.07069817798142465,0.10133519437608325,0.8986648056239168
2011-10-25 00:00:00-04:00,0.000726287954506177,0.01543758827870818,-0.0016786215559795549,0.037181396811084,0.026856668081259152,0.07015112948636953,0.3126990971202948,0.6873009028797051
2011-10-26 00:00:00-04:00,0.0006703144572587453,0.015471199788738708,-0.0018062331839301924,0.03638400310836173,0.02291944931864265,0.04730171882102481,0.04709610355779829,0.9529038964422017
2011-10-27 00:00:00-04:00,0.0006284378116346514,0.015505448163309472,-0.0018038643504937487,0.036143366348203684,0.022024159398082173,0.04314020896611367,0.17422153800098064,0.8257784619990194
2011-10-28 00:00:00-04:00,0.0006086701739102915,0.01553959594234147,-0.0009225960168284753,0.03677373833002845,0.020214033033982975,0.034475723152283526,0.0008735242302055654,0.9991264757697945
2011-10-31 00:00:00-04:00,0.0006064732451684098,0.015544302044052074,-0.0008086936143203656,0.03684945249334839,0.020122478326712455,0.034024554022150634,0.030430946794787948,0.9695690532052121
2011-11-01 00:00:00-04:00,0.0006396188674293195,0.01560634684859638,-0.000434850385061503,0.03580758700320853,0.01103272138200109,0.022710541742279027,0.00019488417848185322,0.9998051158215182
2011-11-02 00:00:00-04:00,0.0006729226025053818,0.01567818063380347,-0.0010024013367970898,0.0358922916632631,0.010915464731664453,0.022123613949322725,0.0033834564724185318,0.9966165435275816
2011-11-03 00:00:00-04:00,0.0006408621361258523,0.015861805207024703,0.0006773186800843327,0.03901223464101561,0.01133357223454786,0.024189070582607528,7.552274750836427e-12,0.9999999999924478
2011-11-04 00:00:00-04:00,0.0005829040615465135,0.015894993492031637,0.0012758355605144121,0.03906495377198777,0.011498829185845506,0.024153245882068488,0.003725205274324789,0.9962747947256752
2011-11-07 00:00:00-05:00,0.00042341234043861764,0.015735030974372205,0.0014920914296946799,0.038699427499545296,0.011737269786014772,0.024736447836740342,0.043521520788090115,0.9564784792119099
2011-11-08 00:00:00-05:00,0.0003016301096072394,0.01565193302811772,0.0014176932523580872,0.03847143672026871,0.012406239809181789,0.027072943807236936,0.15427623429798568,0.8457237657020144
2011-11-09 00:00:00-05:00,0.0003128450704574639,0.01567032716048055,0.0014618468446707703,0.038520297374990874,0.013545578497927147,0.03216127483536417,0.3650368115921935,0.6349631884078064
2011-11-10 00:00:00-05:00,0.0004050286322309363,0.015673227688554434,0.0010158372391022108,0.03807310733854649,0.011978859610245664,0.024475601365410746,0.10459541926957049,0.8954045807304295
2011-11-11 00:00:00-05:00,0.0004000956945810154,0.015734681603101354,0.0012132792353546978,0.03794270185730181,0.012143413249335351,0.025294188917065755,0.17171268150662183,0.8282873184933782
2011-11-14 00:00:00-05:00,0.0004989245114421818,0.01573704417256133,0.0016706899048483685,0.037752507279919204,0.0114842282550499,0.021602461601651884,0.034077249136509204,0.9659227508634909
2011-11-15 00:00:00-05:00,0.0005685493891758962,0.015762045596274362,0.0016054656196360137,0.03757349324122885,0.011989119284870288,0.02316808304064235,0.12869465384777937,0.8713053461522206
2011-11-16 00:00:00-05:00,0.00043115375077487807,0.015697606629156098,0.0014503659291004885,0.03747531235120915,0.012674868843300897,0.025575863571323982,0.24506210435676062,0.7549378956432394
2011-11-17 00:00:00-05:00,0.00035357637738461854,0.015732428696568622,0.0012975869100134553,0.037515166882711566,0.013611988092603732,0.028597128084389342,0.37923932855168574,0.6207606714483144
2011-11-18 00:00:00-05:00,0.00040843442749979126,0.015741764331155948,0.0007661169575277907,0.037111008834954405,0.012981492341201564,0.022452853636360362,0.10618667770135402,0.8938133222986459
2011-11-21 00:00:00-05:00,0.0006056625372606241,0.015422802547745145,0.0009603668188630682,0.03686529035379525,0.012582778978481516,0.023848130149108655,0.21672030670714912,0.7832796932928509
2011-11-22 00:00:00-05:00,0.0004855575978009634,0.01546789545621492,0.0008267075027127826,0.036829792571800316,0.012858577993401541,0.025019760180256225,0.293507027017391,0.7064929729826089
2011-11-23 00:00:00-05:00,0.000439552487939421,0.015558617239558382,0.0009176650602795829,0.03712207914141066,0.013881496625360671,0.03009757792641977,0.5317536120767665,0.4682463879232334
2011-11-25 00:00:00-05:00,0.0005358165814412548,0.015556510214953266,0.00026270469564036264,0.03646014715249626,0.012425567089054606,0.02166975483555665,0.1557634291520014,0.8442365708479986
2011-11-28 00:00:00-05:00,0.0004102561715862239,0.015684492512318227,0.0004406709655382576,0.036677352162748054,0.013452145108438906,0.02595694964421394,0.3772926570555176,0.6227073429444824
2011-11-29 00:00:00-05:00,0.00044623324767980503,0.015351074803580951,0.0006129706755720821,0.03620091517191357,0.01233449376138457,0.019066713327601983,0.008438231737793497,0.9915617682622065
2011-11-30 00:00:00-05:00,0.00028861436831505323,0.015240843885162707,0.0009173006773554881,0.03606090672286023,0.012476496496236186,0.019101793705879246,0.01666864329226939,0.9833313567077306
2011-12-01 00:00:00-05:00,0.0002933992983181102,0.015316884765950436,0.001521752834116949,0.03638466121761068,0.012421463543189173,0.018708972072125674,0.00035017433535809505,0.9996498256646419
2011-12-02 00:00:00-05:00,0.00025314840712442767,0.015364032934202057,0.001380332152603024,0.03621215377135342,0.012472420481902096,0.01882148685757998,0.03512347559174481,0.9648765244082552
2011-12-05 00:00:00-05:00,0.0003680278811698492,0.015316263719535324,0.0013692270793585783,0.036017701599432565,0.012788695742927587,0.01981969082323113,0.12091777543009381,0.8790822245699061
2011-12-06 00:00:00-05:00,0.00038864898203337217,0.01532330399965391,0.0013427141527493015,0.03595109469994863,0.01352118812660044,0.02218397243790672,0.2866383264289239,0.713361673571076
2011-12-07 00:00:00-05:00,0.00043940014614942806,0.01544064932729147,0.001532032139386247,0.03584097724970805,0.013068622528044211,0.020497595612177528,0.2038128199424788,0.7961871800575212
2011-12-08 00:00:00-05:00,0.0005244970515256269,0.015434786971486173,0.0013743401170556242,0.03576925623195848,0.013297624716512163,0.021394133994346396,0.27889846303020616,0.7211015369697938
2011-12-09 00:00:00-05:00,0.0004939675365467308,0.015526585858112124,0.0011833493294236763,0.03569975420148516,0.013228857443700117,0.02086953096579361,0.26354362989081664,0.7364563701091834
2011-12-12 00:00:00-05:00,0.00048567990241058764,0.015595539901141195,0.0013909846979547778,0.03553848328808298,0.012626631781954913,0.018545280753375203,0.13728751942274495,0.862712480577255
2011-12-13 00:00:00-05:00,0.0005874634540822747,0.015583668999850808,0.0011360602222428538,0.03542313410408617,0.012536580310264582,0.01786856481665728,0.10746580162225107,0.8925341983777489
2011-12-14 00:00:00-05:00,0.0005561312333068818,0.015666825800435765,0.0008852005423301245,0.035344547868144935,0.01231568391215934,0.017234989030034384,0.09444595435000086,0.9055540456499991
2011-12-15 00:00:00-05:00,0.0005127735165061118,0.015704808502633994,0.00028930810025362116,0.03554797728646166,0.011757394100057217,0.015551384715410415,0.0019240733009357367,0.9980759266990643
2011-12-16 00:00:00-05:00,0.0005417686474819816,0.015789766916079053,0.00040577499416135537,0.035411228109617866,0.011635144131339053,0.015410020629924488,0.029352103917090432,0.9706478960829096
2011-12-19 00:00:00-05:00,0.0005401947681307707,0.0158954425899949,0.000717579800196776,0.03542031179806467,0.011298224566618461,0.014669974399520738,0.015867945429191888,0.9841320545708081
2011-12-20 00:00:00-05:00,0.0005134815300879422,0.01600942827722705,0.0004886004992435543,0.03534146334094517,0.010892275980999198,0.014107985821362403,0.03046885197892488,0.9695311480210752
2011-12-21 00:00:00-05:00,0.0006224676378289065,0.01621439817400797,0.0006580615511918843,0.03530637031319518,0.009545778059718945,0.012444859578434775,0.035438614347721685,0.9645613856522783
2011-12-22 00:00:00-05:00,0.0007215001779543797,0.01612971311790933,0.0006867720912037327,0.03512821042475194,0.010593257418971144,0.014074453653277735,0.10718419203884122,0.8928158079611588
2011-12-23 00:00:00-05:00,0.0007332173004612237,0.016115591366772354,0.0006950303611074001,0.035039452016273044,0.011603488034696302,0.016318947332040916,0.2531093709146166,0.7468906290853834
2011-12-27 00:00:00-05:00,0.0006301270812527294,0.01598808415143589,0.0006997831570364358,0.03506087203140293,0.013435369240741237,0.020539060714094778,0.4949625449896923,0.5050374550103077
2011-12-28 00:00:00-05:00,0.0006381156277475086,0.015971026401340238,0.0007056142444047287,0.03519631997460824,0.014571584108616796,0.02395784795362444,0.7080033482844899,0.29199665171551026
2011-12-29 00:00:00-05:00,0.0005520094921086215,0.016187406166308902,0.00060905194729951,0.03512522956557849,0.013660792330284067,0.021949338770809797,0.6162469533795286,0.38375304662047144
2011-12-30 00:00:00-05:00,0.0005608529328846639,0.01624051233408792,0.0006608186392156165,0.03522146256351639,0.014062165602847477,0.0235404828954332,0.7197055514270119,0.2802944485729881
2012-01-03 00:00:00-05:00,0.0006076696148166955,0.016245904030246224,0.000662767925929109,0.03538209246746914,0.014750083165112317,0.025974181500487824,0.8578544110730234,0.1421455889269766
2012-01-04 00:00:00-05:00,0.0007822488338243427,0.016566012553470687,0.0006820810709444411,0.03532207849605149,0.013302303630475564,0.023239687166826298,0.7671299964415432,0.23287000355845672
2012-01-05 00:00:00-05:00,0.0007788033860680765,0.01657506722421733,0.0006506050283977224,0.03548981826889436,0.013880442441696022,0.025354738712518685,0.8835840946897082,0.11641590531029179
2012-01-06 00:00:00-05:00,0.0007045312535178995,0.016479137546789226,0.0006580279273400337,0.035547172670747834,0.014587263170920494,0.026867654569754647,0.9371567629085279,0.06284323709147219
2012-01-09 00:00:00-05:00,0.0006715941564384399,0.01645881574549324,0.0006604242106628258,0.03558210946708491,0.01486663967399275,0.02751585273349592,0.9640261633101744,0.03597383668982564
2012-01-10 00:00:00-05:00,0.000512626383124522,0.01632207266571124,0.0006825165277249202,0.03556726307220503,0.01544952533756074,0.028304876697789663,0.9759370399529873,0.024062960047012652
2012-01-11 00:00:00-05:00,0.0006009133712614605,0.01655206999426216,0.0006828142606402417,0.035631242518735486,0.015250203603862561,0.02797474580515304,0.9242995786561771,0.07570042134382295
2012-01-12 00:00:00-05:00,0.0004978000357303164,0.01670428391974573,0.0006766192702078684,0.035680134813314855,0.015174068487883123,0.027735048157338623,0.9155437733153128,0.08445622668468729
2012-01-13 00:00:00-05:00,0.0003592653002441914,0.01647263037251371,0.0006879614113219057,0.03561756901925153,0.015366201496865229,0.028237813843556968,0.9464078594973159,0.05359214050268419
2012-01-17 00:00:00-05:00,0.00013082439964966767,0.016302773720660454,0.0007124430492329452,0.035578289299968965,0.01572175220258771,0.028763262784417105,0.9636297649055433,0.03637023509445657
2012-01-18 00:00:00-05:00,0.0002764111274812578,0.016252610804881013,0.0007026788111726498,0.03557134959537095,0.015716894407332066,0.02877552365069247,0.974879017279564,0.025120982720435996
2012-01-19 00:00:00-05:00,0.0004012615465609491,0.01634667033200246,0.0006866611477489681,0.035603654157924214,0.015497165173606397,0.0285494041292692,0.9739641645037764,0.026035835496223486
2012-01-20 00:00:00-05:00,0.00035756909533909227,0.016345138476812748,0.0006890369421941759,0.03560040118622337,0.015526430697736768,0.028588236220234955,0.9807110121284109,0.019288987871589083
2012-01-23 00:00:00-05:00,0.00022745070305031902,0.01645116515730499,0.0006993178448579017,0.03563822477089606,0.01564562316405142,0.02869129299029007,0.9738365464775909,0.02616345352240914
2012-01-24 00:00:00-05:00,0.000521683856524753,0.016533143145041448,0.0006826610360944056,0.03566237473325766,0.015408483094055509,0.028323911123847034,0.9594854182017428,0.04051458179825727
2012-01-25 00:00:00-05:00,0.0002773804183653478,0.01636460181403669,0.0007028230173520513,0.03560664612663352,0.01569085457681734,0.028717502028550657,0.9692737637640602,0.03072623623593995
2012-01-26 00:00:00-05:00,0.00036241970725466526,0.01648775149147526,0.0006993919646118415,0.03565093763263168,0.015677571127419,0.028618654004840652,0.9596440512721491,0.04035594872785086
2012-01-27 00:00:00-05:00,0.0002663162792620321,0.016577238444060338,0.0007210171663780106,0.03568962314844764,0.01597306295021841,0.028851193971290004,0.9554742448838722,0.04452575511612773
2012-01-30 00:00:00-05:00,-5.081727596970314e-05,0.016110988945662624,0.0007406072953673611,0.03552691951530514,0.016174622847093516,0.029197097177020164,0.9701577498774453,0.029842250122554728
2012-01-31 00:00:00-05:00,-3.7790533040041206e-05,0.01612593522957617,0.0007410214787988437,0.03553576309434152,0.01612540299732889,0.029153559864465568,0.9746342848205413,0.025365715179458816
2012-02-01 00:00:00-05:00,3.360232339881384e-05,0.01615520343239892,0.0007299157218478649,0.035539392248840396,0.01596093816679959,0.02895750365289942,0.9795825052539903,0.020417494746009665
2012-02-02 00:00:00-05:00,3.3223332303683956e-05,0.016157850265336796,0.0007255807676586606,0.03552873257922356,0.015931327494648085,0.028811906237886188,0.9834671728997098,0.01653282710029017
2012-02-03 00:00:00-05:00,9.62815950824835e-05,0.016167356790670242,0.0007121734546421288,0.03549893779155222,0.01578860451852113,0.02839948222242774,0.9847272265314483,0.015272773468551775
2012-02-06 00:00:00-05:00,0.00036190088930597507,0.0163391391166621,0.0006811392920494406,0.035514294205911,0.015358718941500926,0.027555036841675026,0.9675405265464226,0.03245947345357739
2012-02-07 00:00:00-05:00,0.00048487375751254393,0.016338960427013292,0.0006674736966225292,0.03543285384077782,0.01503226949547654,0.026454566820035,0.9762872685493313,0.023712731450668687
2012-02-08 00:00:00-05:00,0.0006028703834421854,0.016326334328597533,0.0006677319311966053,0.03530238266874525,0.014612670205398082,0.024771058525980574,0.980458457137616,0.019541542862384034
2012-02-09 00:00:00-05:00,0.000596251963072769,0.016250279846078065,0.000674336077770689,0.0351323834864179,0.01441205133314431,0.02247847783420495,0.9842888881045527,0.01571111189544735
2012-02-10 00:00:00-05:00,0.000677020521772508,0.016164431380936834,0.0007363811258217903,0.03503210224476895,0.014217096973310219,0.020474803390591226,0.9847663858122394,0.015233614187760657
2012-02-13 00:00:00-05:00,0.0005891945974754591,0.016070500982976396,0.0006573692847875713,0.035034565308789074,0.014138182907586179,0.019389485228542933,0.9858412223440748,0.014158777655925225
2012-02-14 00:00:00-05:00,0.0006996220072422019,0.01602624987467455,0.0007597898783064483,0.035092980581735385,0.01400974513530791,0.01853314211897482,0.9834191956528969,0.016580804347102927
2012-02-15 00:00:00-05:00,0.0007120706505526036,0.015942447449797028,0.0008245741144306631,0.03519898328408232,0.01388952674195493,0.01785073851252369,0.9862145029878359,0.013785497012164164
2012-02-16 00:00:00-05:00,0.0007697642105044999,0.01588974127099593,0.0007248710546917639,0.035337406097345606,0.013808489227636596,0.01764894617683976,0.9861594822569437,0.013840517743056276
2012-02-17 00:00:00-05:00,0.0009321556754515534,0.016050214276852447,0.0002982238846619682,0.035308617781571336,0.013148157484876228,0.01798813782564681,0.9731910759221748,0.026808924077825216
2012-02-21 00:00:00-05:00,0.0007334600575788923,0.016142158884630848,0.00035648395705557324,0.03548902136315121,0.013722044871116076,0.018179427390656637,0.9362808411410222,0.0637191588589779
2012-02-22 00:00:00-05:00,0.0005169241122169323,0.016423656037903227,0.0002159110764110932,0.03563998801690245,0.006945403172531002,0.015509831970303162,0.9791341445790561,0.020865855420943987
2012-02-23 00:00:00-05:00,0.0007303119616024998,0.01616531841763275,0.0002605995713646469,0.035651473019515156,0.0061533580374762906,0.015023494413554193,0.9886989542465479,0.011301045753452098
2012-02-24 00:00:00-05:00,0.0006890994329382373,0.016129118394600538,0.0002528963297677278,0.03564298556371473,0.006229453103877487,0.01504757539893594,0.9915126110011125,0.008487388998887426
2012-02-27 00:00:00-05:00,0.0007308146908034186,0.016120020285162642,0.00022955578389599797,0.03563121645869519,0.00657227923654572,0.015216567719903533,0.9922665465388424,0.007733453461157576
2012-02-28 00:00:00-05:00,0.0008609912068960313,0.015869792484298196,0.000257214055745585,0.035635478716833584,0.005976048681254836,0.014848173559411506,0.9908018994494515,0.009198100550548398
2012-02-29 00:00:00-05:00,0.000871406613132161,0.01587193266674601,0.00025688607393227654,0.035628849700881315,0.006019334423216656,0.01486523307391149,0.992581310279759,0.0074186897202409416
2012-03-01 00:00:00-05:00,0.0005671779436762788,0.01590163913787321,0.0002635515841872637,0.03563643452372675,0.006043794014298438,0.014885118168032351,0.9849245262698287,0.015075473730171188
2012-03-02 00:00:00-05:00,0.0008483718800845735,0.015989586140937657,0.00025681441146733965,0.03563487164450854,0.006162209611192509,0.014965103047207644,0.9728551848855829,0.027144815114417156
2012-03-05 00:00:00-05:00,0.0007304310336112993,0.01611872238539493,0.00025210780582603595,0.03563558911568618,0.006406939015591548,0.01512139982378957,0.955544502855936,0.044455497144063987
2012-03-06 00:00:00-05:00,0.0008301176804090094,0.01602351225982518,0.0002582521231127103,0.03563099427622869,0.006227723994086227,0.015000587008551598,0.9751819792592092,0.02481802074079079
2012-03-07 00:00:00-05:00,0.0008201035368086414,0.01601452322553428,0.00026979024328720375,0.03562083446961526,0.006375396863434408,0.015064946026149311,0.9851006430089619,0.014899356991038039
2012-03-08 00:00:00-05:00,0.001030646377718457,0.015845415225073985,0.00026691802664164163,0.0356217889610716,0.006109577591501651,0.014895668179681772,0.9906732501731156,0.009326749826884416
2012-03-09 00:00:00-05:00,0.0009275660640772634,0.01571881648162164,0.0002619960964989156,0.035619046650983324,0.005995943421450122,0.014813514111936972,0.9921743949195952,0.007825605080404864
2012-03-12 00:00:00-04:00,0.0009013078988298649,0.015704863601414723,0.0002692027371053615,0.03561253624210918,0.006094332116442935,0.014857488589225231,0.9936744605748151,0.006325539425184818
2012-03-13 00:00:00-04:00,0.0008850534794785318,0.015698408983056796,0.00028856638814737614,0.03560876298456553,0.006277616525356271,0.014948229648593233,0.9929280423633194,0.007071957636680641
2012-03-14 00:00:00-04:00,0.0011048518631579013,0.015810254837179315,0.0003190536916496381,0.03562081075676745,0.00669713612007445,0.015195637132956488,0.9812255370595595,0.018774462940440523
2012-03-15 00:00:00-04:00,0.0007528929644507488,0.015591610373021437,0.0002660418889366616,0.03561712120175186,0.006025409119334206,0.014786617454408423,0.9807413641692441,0.01925863583075601
2012-03-16 00:00:00-04:00,0.0008495042018165923,0.015589053002727716,0.00027107155657394633,0.035616273087864095,0.006059914265783733,0.014807493012717152,0.9878627948758956,0.012137205124104392
2012-03-19 00:00:00-04:00,0.0007063634689431266,0.015392158139287994,0.0002672044007445732,0.035605105696681044,0.00588133118821439,0.014679871144626395,0.9911762918558121,0.008823708144187821
2012-03-20 00:00:00-04:00,0.0006229866754123867,0.015332291120216108,0.00027047165824618444,0.03560207184164159,0.005848184996067241,0.014654056680446954,0.9934898533168536,0.006510146683146429
2012-03-21 00:00:00-04:00,0.0004271403297089018,0.015446993528454486,0.000277292743425614,0.03561238708833154,0.005898558256428826,0.014690163442546943,0.9864306236478576,0.013569376352142355
2012-03-22 00:00:00-04:00,0.0002855010409213765,0.01542656452986795,0.00028473225686799096,0.0356126357363133,0.005868667962612138,0.014668445980315805,0.9907059107830093,0.009294089216990634
2012-03-23 00:00:00-04:00,-2.894041416127347e-05,0.015565705676626858,0.00028716047447241064,0.035622971916533554,0.005986814371879147,0.014746792808895551,0.9699778687451877,0.030022131254812262
2012-03-26 00:00:00-04:00,-1.0574684723817654e-06,0.015589921584825495,0.0002934951689172576,0.035624945031549726,0.005925721972979232,0.014718844118075017,0.9797433967810472,0.02025660321895287
2012-03-27 00:00:00-04:00,-4.699372750660048e-05,0.015570589113882169,0.00029815898346553733,0.0356253640372161,0.005861800563568853,0.014681434776044812,0.9884168514779502,0.0115831485220497
2012-03-28 00:00:00-04:00,-7.292689144691234e-05,0.015581097662624858,0.0002994553602619143,0.03562771462523165,0.005842290473767222,0.014673220960059076,0.9916612967862516,0.00833870321374835
2012-03-29 00:00:00-04:00,-0.00013423323258279115,0.01562251870650599,0.0003015387210251268,0.035631325753769705,0.005845082180768287,0.014680839061642748,0.9912301572522989,0.00876984274770115
2012-03-30 00:00:00-04:00,-0.00016516352945446298,0.015628999373851944,0.000303228531883759,0.035632360937020435,0.005838102316292593,0.014677819843439395,0.9933374748013801,0.006662525198619907
2012-04-02 00:00:00-04:00,-3.454199992432511e-05,0.015710862199921443,0.0002971025664511321,0.0356376393196591,0.0058829309986482455,0.014720065599448136,0.9898700423209239,0.010129957679076035
2012-04-03 00:00:00-04:00,0.0001842575524512993,0.01576720324487036,0.0002883602166324541,0.03564002132668355,0.00592357036464736,0.014757504436065974,0.9864975205406805,0.013502479459319587
2012-04-04 00:00:00-04:00,0.0003191277852556106,0.01569437205549122,0.0002815280241385198,0.03563372491599454,0.005874697633306936,0.014718928656307684,0.9915765995098884,0.008423400490111655
2012-04-05 00:00:00-04:00,0.0001513581302909223,0.01585282185782473,0.0002828605199103837,0.035645403369831345,0.005987350103748893,0.014809852874425903,0.9796094846660841,0.020390515333915952
2012-04-09 00:00:00-04:00,7.240590644180998e-05,0.01588500744414814,0.000281947621759179,0.03564836581401907,0.00601493206081053,0.014831012111640327,0.9852377479026903,0.014762252097309763
2012-04-10 00:00:00-04:00,8.120603058307777e-05,0.015874156898086727,0.0002827662667558177,0.03564898548129564,0.0060261329445413245,0.014835853134729194,0.9861941579713065,0.013805842028693428
2012-04-11 00:00:00-04:00,7.983831939046746e-05,0.01589020489189494,0.0002695528042076315,0.03564476157690323,0.0061057029999370335,0.014880305093557407,0.9560680686217208,0.04393193137827924
2012-04-12 00:00:00-04:00,-8.970679010327375e-05,0.015873417847757743,0.00028647787769335527,0.03564708732491888,0.00597223662824711,0.014803299618980546,0.9751137005375499,0.024886299462450193
2012-04-13 00:00:00-04:00,6.007709142708026e-05,0.015994994383487948,0.0002856188785955883,0.035652567412525794,0.006049058928623737,0.014877085511539826,0.9664569889721238,0.03354301102787618
2012-04-16 00:00:00-04:00,-7.915326571048226e-05,0.016065461151219644,0.00028971961859981647,0.03565993495820008,0.006029042036449409,0.014885025232093264,0.9718577754938947,0.02814222450610527
2012-04-17 00:00:00-04:00,-4.81815796015206e-05,0.016050584012506936,0.0002939167860350446,0.03566285186905767,0.005958280797000717,0.014846951481891182,0.9840354621883162,0.01596453781168392
2012-04-18 00:00:00-04:00,0.00010598229333340809,0.01613158811547847,0.00029264475271069575,0.03566638466685766,0.00600283618118528,0.014895693594286783,0.9819498548852402,0.018050145114759737
2012-04-19 00:00:00-04:00,-7.800793360160894e-05,0.016040812473033596,0.00029879979499588405,0.03566297380816856,0.005914221733528625,0.014821339428306397,0.9887656264860712,0.01123437351392862
2012-04-20 00:00:00-04:00,-9.429704618805727e-05,0.016041225929670826,0.00029909853262657585,0.03566246190531336,0.005910900153516512,0.014818205271201363,0.9922884986351854,0.007711501364814507
2012-04-23 00:00:00-04:00,-6.309391759324638e-05,0.016017090883505534,0.0002983119214569229,0.03565844390839177,0.005912558513205533,0.014810455007944902,0.9931319274978483,0.006868072502151641
2012-04-24 00:00:00-04:00,-0.00010867104748265442,0.015987155559491248,0.0002980376190334593,0.03565242119105014,0.0059236739925061345,0.014802342222483915,0.9939949695629671,0.006005030437032983
2012-04-25 00:00:00-04:00,-5.2602599918276286e-05,0.015995998977347027,0.00029049658342305456,0.03564187245558039,0.006012183787520489,0.014838243859619947,0.9939645919979238,0.006035408002076252
2012-04-26 00:00:00-04:00,6.938313231082294e-05,0.01605886140208758,0.00027368398911713085,0.03562759986268891,0.006235389665368243,0.014948843579517493,0.9902599429488443,0.009740057051155689
2012-04-27 00:00:00-04:00,0.0001569889080000188,0.0160957812807463,0.0002401889890604497,0.03560767855789639,0.006589860015887652,0.015107601059134527,0.9865030028514092,0.013496997148590857
2012-04-30 00:00:00-04:00,0.0003118201046558956,0.016005076737200065,0.00023762696833722882,0.035592543841645036,0.006776313971224501,0.015152543962845058,0.9905911909092665,0.009408809090733465
2012-05-01 00:00:00-04:00,0.0005076791569458589,0.01589146545049995,0.0002644803574436261,0.035601791436266655,0.0065710294306540245,0.015028411736851424,0.9926229788519839,0.007377021148016002
2012-05-02 00:00:00-04:00,0.0006974042817811078,0.015836956159093505,0.00027905616101361197,0.035596560217631246,0.006819836990615729,0.015124928073243438,0.9919767864446907,0.008023213555309234
2012-05-03 00:00:00-04:00,0.0006762442590671575,0.015817102133627473,0.0003182246707435558,0.03560752343184955,0.007083717940210865,0.01524346181249942,0.9883781877361937,0.011621812263806364
2012-05-04 00:00:00-04:00,0.0004147559118843319,0.01572874997293462,0.0002741616537451603,0.035625865968832326,0.006510017915442543,0.014937770281885705,0.9892811474097712,0.010718852590228773
2012-05-07 00:00:00-04:00,2.6030547596867238e-05,0.015591560652166039,0.0002803146270449087,0.03562896071593577,0.005919862896992653,0.014591901341686125,0.984656500361636,0.015343499638364018
2012-05-08 00:00:00-04:00,2.6666857253464773e-05,0.015586435040547979,0.0002718212018505727,0.03562978698455472,0.006037541993014223,0.014652935595689824,0.9901553459605106,0.009844654039489514
2012-05-09 00:00:00-04:00,0.0002136338862983166,0.015293514327559455,0.00028828730574152116,0.035609202405790505,0.0057070181765449405,0.014413771628483717,0.9928041597393246,0.007195840260675368
2012-05-10 00:00:00-04:00,0.0003590656532172266,0.015290091170682845,0.00028338097653773204,0.035607923389479046,0.005698496887113203,0.01441167800879464,0.9933168418753854,0.006683158124614534
2012-05-11 00:00:00-04:00,0.00045483631158919067,0.015328066122441076,0.0002793242859682749,0.0356099981034898,0.005710084998014485,0.01442727039300647,0.9928910437274824,0.007108956272517694
2012-05-14 00:00:00-04:00,0.0003589859810563348,0.015421820216682284,0.00028123906321419253,0.03561703219842724,0.005753160713355692,0.01446767253688757,0.9874985582750732,0.012501441724926891
2012-05-15 00:00:00-04:00,0.00010275851050845957,0.015611721260152998,0.0002782416809554472,0.03562965945100495,0.005934706563751481,0.014603052131800673,0.9626653213818508,0.03733467861814917
2012-05-16 00:00:00-04:00,-8.294584443662032e-05,0.015665120017717915,0.0002847830234310281,0.03563275989807146,0.005903561379935502,0.014596798329234627,0.9692029343242882,0.03079706567571176
2012-05-17 00:00:00-04:00,-6.66914272281373e-05,0.015662162758179252,0.000293250468221472,0.03563477463961367,0.0058343175129154864,0.01456256052273568,0.9838034398231156,0.016196560176884305
2012-05-18 00:00:00-04:00,-0.0002311027515947019,0.015703779839970806,0.0002999966894357221,0.035638237484708915,0.005852602369371395,0.01458053142349481,0.98575886780646,0.014241132193539988
2012-05-21 00:00:00-04:00,-0.0001423501851885033,0.015600128212407562,0.0003021914125224767,0.035632078533520385,0.005770213341663737,0.014513823225772098,0.9895069914675523,0.010493008532447806
2012-05-22 00:00:00-04:00,5.828349189710688e-06,0.015866031840105058,0.00030676373209567124,0.03563819891444094,0.006383706029689165,0.014906484552892113,0.900362168702188,0.09963783129781192
2012-05-23 00:00:00-04:00,8.121789596833208e-06,0.01588346108722108,0.00030886883562056445,0.035639970990398756,0.0061094425861633675,0.014775181559798876,0.9431572455637579,0.05684275443624211
2012-05-24 00:00:00-04:00,3.4076034532902413e-05,0.01589551319408462,0.0003031146612736399,0.035645999343293065,0.0059309074578874086,0.01469326199526899,0.9718736495373909,0.028126350462609154
2012-05-25 00:00:00-04:00,-8.143188070696498e-05,0.015899609046710377,0.00030418037071037107,0.035650439637895964,0.0058654604195346105,0.01466280965282742,0.9829137129834579,0.017086287016542103
2012-05-29 00:00:00-04:00,-7.863733623450271e-05,0.015902152409026277,0.00030368025639055177,0.035653020687604016,0.005847316147979459,0.014656930916622202,0.9882149078624014,0.011785092137598542
2012-05-30 00:00:00-04:00,0.00017818480786532025,0.016083849414839483,0.0003048476113295244,0.03566015196895949,0.006046454070554625,0.014819623694413104,0.9673789663141623,0.032621033685837686
2012-05-31 00:00:00-04:00,-0.00022947459551205776,0.016199494838649704,0.0003051961455265203,0.03564825184159906,0.006707948242092449,0.015187869329951828,0.8652375652212154,0.13476243477878458
2012-06-01 00:00:00-04:00,-0.0003105131768751574,0.01627274384303117,0.000293490328408639,0.03565547286797277,0.0064686049195718095,0.015100771202610684,0.907452014090014,0.09254798590998604
2012-06-04 00:00:00-04:00,-9.922263711650367e-05,0.01597973973549034,-0.0006653875055470823,0.035964074474173706,0.013520147748920826,0.01797690915504303,0.0008109945867385783,0.9991890054132614
2012-06-05 00:00:00-04:00,-3.571772472336773e-05,0.01601818837600317,-0.0007876781713842749,0.035803445694727994,0.013768165243993663,0.018161913010781877,0.030851343827109672,0.9691486561728904
2012-06-06 00:00:00-04:00,-8.081232863147723e-05,0.016054285648892663,-0.000640598680722048,0.03567294125811319,0.014125914967978291,0.018499701059175325,0.07083409995833406,0.9291659000416659
2012-06-07 00:00:00-04:00,-0.00018441777513853578,0.016045361833096447,-0.00033787110601596717,0.0356357282302298,0.01421430402286152,0.01793117780193191,0.03521851580667294,0.9647814841933271
2012-06-08 00:00:00-04:00,1.1825740879143928e-05,0.015927370339855605,-0.00028487830668173715,0.03547153834377237,0.014050813999488081,0.01829433603453875,0.10594764182522907,0.8940523581747709
2012-06-11 00:00:00-04:00,0.0001967897071211367,0.01580913351887492,-0.0004250800089834733,0.03535303694867563,0.01400863034599677,0.018665697482278778,0.16752185230695338,0.8324781476930466
2012-06-12 00:00:00-04:00,0.0001518977019723849,0.015878599718269833,-0.0005824913990990877,0.035277814202333155,0.014236372712568661,0.018949017496529923,0.19760898501417834,0.8023910149858217
2012-06-13 00:00:00-04:00,0.0003384860075085141,0.015844325715409766,-0.0004046643438062754,0.03518495964689182,0.014207988741476158,0.018632147142920632,0.18767735351721468,0.8123226464827854
2012-06-14 00:00:00-04:00,0.00040790787836875457,0.01588363098958164,-0.0005227055325798154,0.03513847939813507,0.014465178248846333,0.019624239041401623,0.2799662560600968,0.7200337439399032
2012-06-15 00:00:00-04:00,0.00041250162048000983,0.01596327950467235,-0.00041264770550164987,0.035134902827474834,0.014811257210490265,0.020640536999105202,0.3626050895824915,0.6373949104175085
2012-06-18 00:00:00-04:00,0.0005798531796372295,0.016007445815272622,-0.00029238014483977056,0.03509381758912501,0.014996200063267563,0.020836133692726046,0.3793704423525694,0.6206295576474304
2012-06-19 00:00:00-04:00,0.00043486853471431675,0.016061979802603914,-0.0004024334508400877,0.035072468952962135,0.015213987823107511,0.021417523869335334,0.4265524045378199,0.57344759546218
2012-06-20 00:00:00-04:00,0.0005804092188877742,0.01615754285817235,-0.00041123111490613796,0.03525680579205136,0.015925594703597053,0.02424412257059592,0.6173997870815603,0.38260021291843976
2012-06-21 00:00:00-04:00,0.0005326132478748752,0.016179084024293203,-0.0004988001696383794,0.03492303180676848,0.015628894333157613,0.02089307743155193,0.37278470707468064,0.6272152929253194
2012-06-22 00:00:00-04:00,0.0007064901273143385,0.015966364981971005,-0.0010806115645324512,0.03492852517404197,0.01489875862869605,0.016246342942847526,0.0004048394855719835,0.999595160514428
2012-06-25 00:00:00-04:00,0.0005487891936609037,0.01592012549746265,-0.0009525944615360927,0.03478737225215921,0.014929224105661281,0.016251493294400263,0.0284639513047031,0.9715360486952969
2012-06-26 00:00:00-04:00,0.0003854021145389204,0.015880346698049906,-0.001193314300446492,0.03473581362918376,0.014879273397707253,0.015945606022525326,0.019594870451011215,0.9804051295489887
2012-06-27 00:00:00-04:00,0.0003283720671236949,0.01593302886673661,-0.0012659253550357421,0.03459671241980629,0.01510624471935734,0.01618547032767868,0.060774803083493846,0.9392251969165062
2012-06-28 00:00:00-04:00,0.00023214799923304105,0.01594970510784793,-0.0010923379043029009,0.03450307004953927,0.01526675920195831,0.016224870526547582,0.08491448436449134,0.9150855156355087
2012-06-29 00:00:00-04:00,0.00034150892057544023,0.015956785062941736,-0.001137458560390608,0.03439417383339106,0.01564055259551302,0.01706914088830706,0.18535418725068548,0.8146458127493146
2012-07-02 00:00:00-04:00,0.0003413675452028954,0.016000400721953616,-0.0006570327785184606,0.0345422883274506,0.01543796806622952,0.014947298174330884,0.0028983130152741145,0.9971016869847259
2012-07-03 00:00:00-04:00,0.0004247043753552745,0.016008641830244464,-0.000751581136852855,0.03433488761020974,0.015806796654781765,0.014647829426302274,0.027812024502997,0.972187975497003
2012-07-05 00:00:00-04:00,0.00034524140218204075,0.01600496550868484,-0.0002371468181136564,0.03468474491065778,0.016174636852303092,0.014105518988884803,0.00010438452830813024,0.9998956154716919
2012-07-06 00:00:00-04:00,0.0004624647963869518,0.015960502769390938,-0.00045047536872219827,0.034570550235573545,0.016466036786150995,0.013541819121906145,0.006640266471554371,0.9933597335284456
2012-07-09 00:00:00-04:00,0.0006524640596624027,0.015876752149921874,-0.0005229248313188015,0.034570071366582765,0.01599323186492329,0.014090910525781127,0.03005125970377266,0.9699487402962272
2012-07-10 00:00:00-04:00,0.0006336409217628647,0.01585633775686097,-0.00040233850376855315,0.03431470126315035,0.01665583441168414,0.013404753759021797,0.07652511649200897,0.923474883507991
2012-07-11 00:00:00-04:00,0.0005731389769405002,0.015785428662905648,-0.0005137074327075108,0.034059748495520466,0.016942255561942787,0.011695375135598889,0.06598455192018206,0.9340154480798181
2012-07-12 00:00:00-04:00,0.0006827075904948661,0.015764792749515293,-0.0002286692846142296,0.034067736014987825,0.01675002167501532,0.011530944943159423,0.05037698380789323,0.9496230161921069
2012-07-13 00:00:00-04:00,0.0004941143247713484,0.015492451867993244,-0.0005073170599033474,0.03435661474379048,0.01572024689991659,0.014782634608033503,0.13289359419077934,0.8671064058092206
2012-07-16 00:00:00-04:00,0.000498861348392986,0.015570110059505062,-0.0003562200380073617,0.03423887766333397,0.015857858620740233,0.014299694847868099,0.14056788498554565,0.8594321150144544
2012-07-17 00:00:00-04:00,0.00032384996138655665,0.015483608805711691,-0.0003648479243376941,0.03423758481208075,0.016146611115622267,0.015773862739917103,0.29512869239727146,0.7048713076027285
2012-07-18 00:00:00-04:00,0.0004313639935243377,0.01557926194483537,-0.00027521673055420074,0.03411600397191861,0.01618576594325641,0.015051702905757297,0.30775878598629475,0.6922412140137053
2012-07-19 00:00:00-04:00,0.0004226069865520445,0.01559627548961343,-0.0002783400575223116,0.0340904833795411,0.016312551807456496,0.015580518116266645,0.4205989479843826,0.5794010520156174
2012-07-20 00:00:00-04:00,0.0005640409787811811,0.015667278828596604,-0.00034896557668295255,0.03403507490720977,0.01631824207281075,0.015210243294853508,0.5250510480091249,0.4749489519908751
2012-07-23 00:00:00-04:00,0.0008551632944894901,0.015707976983800383,-0.0005010703322200368,0.034047194349723496,0.016195617742841478,0.01492012073911901,0.6931421737190073,0.3068578262809925
2012-07-24 00:00:00-04:00,0.0008019077570730293,0.01575926878047844,-0.000620592756357308,0.03395829865279644,0.015619027173102703,0.012871869029325782,0.6564293872525067,0.34357061274749323
2012-07-25 00:00:00-04:00,0.0007369707622180473,0.015769897319280534,-0.0005363663116618013,0.034083070292092975,0.01584147739519262,0.013973327196429136,0.718555549103533,0.2814444508964669
2012-07-26 00:00:00-04:00,0.0008303395500125056,0.015751258250563772,-0.0005746817545704772,0.0342615484953758,0.015642767461198335,0.014192689505458175,0.8506109249521461,0.149389075047854
2012-07-27 00:00:00-04:00,0.0010047572977593749,0.015772366792207893,-0.0005029950435653341,0.03439513521187692,0.015560468846092733,0.014210963033720783,0.8847391124695044,0.11526088753049556
2012-07-30 00:00:00-04:00,0.0011582643816965155,0.015954022678145805,-0.00031572977929974333,0.03431245709358182,0.015744506127652734,0.012455309051761737,0.6603230054010797,0.3396769945989203
2012-07-31 00:00:00-04:00,0.0011145105759308841,0.015986480762725224,-0.00022641077588460333,0.034461371514941844,0.01563052474837234,0.013218705434264429,0.7491060171178607,0.25089398288213927
2012-08-01 00:00:00-04:00,0.0010300379363431319,0.016023812951259216,-0.00019086161483437708,0.03465077200254221,0.015548713278140162,0.013680818305837337,0.8088801254368402,0.1911198745631597
2012-08-02 00:00:00-04:00,0.001177530664895457,0.01607570238641233,0.0003258569706418319,0.03431435429949861,0.01558429440536807,0.01353442746181841,0.7751457909095822,0.22485420909041773
2012-08-03 00:00:00-04:00,0.000736921881630802,0.015808907116130214,0.0001364452166057312,0.033405846490810256,0.015672099532582646,0.008442039753169425,0.1345978613769899,0.8654021386230101
2012-08-06 00:00:00-04:00,0.0006854306051010276,0.015677026130192707,0.0015070866943810066,0.03391634576419063,0.015715528937571048,0.007608176436317385,1.1830234488294098e-09,0.9999999988169765
2012-08-07 00:00:00-04:00,0.0006837250874088479,0.015673028622081153,0.0012604815429408864,0.03386330875752798,0.015712370050142734,0.007659015216580742,0.014019953766894024,0.985980046233106
2012-08-08 00:00:00-04:00,0.0006741420784363095,0.015667234012140315,0.0017679135847025018,0.03371015096182371,0.015548127983183734,0.007481247146462871,0.012960818865880974,0.987039181134119
2012-08-09 00:00:00-04:00,0.0006860743504555637,0.015663751480660272,0.0012048032544876607,0.03321799126786489,0.01579101052456998,0.008224770425762681,0.04121922256856993,0.95878077743143
2012-08-10 00:00:00-04:00,0.0006901933527101334,0.01566175006384409,0.001224157636558405,0.03322390749684385,0.015820131956762025,0.008166357655976696,0.07450220524146971,0.9254977947585303
2012-08-13 00:00:00-04:00,0.0007194416307651017,0.015659093899153244,0.0010804098865027157,0.033251695696162833,0.016378083341199737,0.00915851889882294,0.1693318284587182,0.8306681715412817
2012-08-14 00:00:00-04:00,0.0007690179898374106,0.015654424453454566,0.0011285142935003561,0.03340263601941986,0.017537189188780344,0.011156647765173073,0.34098293633492394,0.659017063665076
2012-08-15 00:00:00-04:00,0.0009132712804000161,0.015654218254327164,0.0011321413476807654,0.03377449639080873,0.01961781126492979,0.014722176043755338,0.5791134263807184,0.4208865736192816
2012-08-16 00:00:00-04:00,0.001217519908092319,0.01594651241759826,0.0013518425266576027,0.035195845952682034,0.02398819818777056,0.03266078602207,0.8779712711679032,0.12202872883209673
2012-08-17 00:00:00-04:00,0.0012888282627169106,0.015905187710712917,0.001374339214966459,0.035088749241893265,0.02413484009506588,0.031644762350466184,0.9198631699308257,0.08013683006917419
2012-08-20 00:00:00-04:00,0.0013576765273550174,0.015772476410296367,0.0014299027116241871,0.03495145713704893,0.023647604287554698,0.029997380813128662,0.9514142750540833,0.04858572494591674
2012-08-21 00:00:00-04:00,0.0010872761044238718,0.015674357043124153,0.0013536768214140948,0.03505806183811077,0.02333497862857004,0.031243502248719312,0.9546352991994185,0.04536470080058156
2012-08-22 00:00:00-04:00,0.0009451791914337844,0.0156043815823519,0.001354938512164887,0.03486822410399982,0.022589955323570773,0.028396720924209876,0.965282400334968,0.03471759966503203
2012-08-23 00:00:00-04:00,0.0010245618312823867,0.015475468733646781,0.0014305652424307976,0.034786651867301836,0.021930532486909803,0.027044087221466038,0.9749583934992271,0.02504160650077293
2012-08-24 00:00:00-04:00,0.0007706330112998764,0.015458082257122249,0.001404755151404982,0.0346838630879696,0.02111862710028182,0.02505969796115694,0.9651771464613179,0.034822853538682016
2012-08-27 00:00:00-04:00,0.0008478852431099006,0.015451906328475852,0.0013136325875434626,0.034706520422120336,0.0208910037670147,0.02425159400203525,0.9601563242115458,0.03984367578845415
2012-08-28 00:00:00-04:00,0.0008436508874407317,0.015347453941368414,0.0012749598270526462,0.034613817721545495,0.01958469016812207,0.02139516569780861,0.9741402942299925,0.0258597057700076
2012-08-29 00:00:00-04:00,0.0008113997904993659,0.015261787865419551,0.0012477289479193385,0.03465126642896169,0.018875545666098704,0.019936177678524646,0.980178603694907,0.01982139630509302
2012-08-30 00:00:00-04:00,0.0007522784457370391,0.015204680247639745,0.0013585703204642935,0.03474404270886868,0.0185724752870636,0.019484250566002084,0.9816449593669236,0.018355040633076445
2012-08-31 00:00:00-04:00,0.0005824084506300921,0.01526160824970801,0.0016600109286788176,0.03474548288170069,0.01855629220000631,0.01991259097931291,0.9674635731523559,0.03253642684764416
2012-09-04 00:00:00-04:00,0.000777263429727436,0.015344353734632422,0.0017836043753852594,0.03493054467932414,0.018914480441317303,0.020442959893290116,0.9478520793851789,0.05214792061482104
2012-09-05 00:00:00-04:00,0.0008404348899857378,0.015363798815198055,0.001446080403644249,0.03502468311629685,0.01931316998907966,0.022433836348636646,0.9639025107838041,0.03609748921619589
2012-09-06 00:00:00-04:00,0.0007952286664263496,0.015299012077845118,0.0015757389353423907,0.035083322758861626,0.018873606317675578,0.0216544251846005,0.9737592257475784,0.026240774252421575
2012-09-07 00:00:00-04:00,0.001254135076402293,0.015614964958307784,0.0017686952080451497,0.035913367266582584,0.022718991135615107,0.03325443634227401,0.8553571509752405,0.1446428490247596
2012-09-10 00:00:00-04:00,0.0012077878494545398,0.015562449076269705,0.0017739080647930202,0.03570409804444208,0.021096553866484784,0.02903381368370251,0.9257300953193713,0.07426990468062873
2012-09-11 00:00:00-04:00,0.0011176246372647226,0.015486948099544378,0.0017777775794292471,0.035582362787719715,0.019798410514004838,0.02547249062852412,0.9574263437034609,0.04257365629653917
2012-09-12 00:00:00-04:00,0.0010808456611904025,0.015402301427417758,0.0017207287542453668,0.03559494499696852,0.018953869813609744,0.02369338096611715,0.9738609649766125,0.026139035023387543
2012-09-13 00:00:00-04:00,0.0010826679718654302,0.0153385021324496,0.001492340348054048,0.03568912445115219,0.018978200326625397,0.024671634079760144,0.9802499767241026,0.01975002327589745
2012-09-14 00:00:00-04:00,0.001244977334914063,0.015376806401860642,0.0014882801345151284,0.03587645309219635,0.018961048815761928,0.024130476635773987,0.9711099403392973,0.028890059660702683
2012-09-17 00:00:00-04:00,0.0013994810501722504,0.015417752568616192,0.0017322306080535996,0.03599621293228632,0.01912738857421099,0.024909367201123706,0.9605103553731221,0.039489644626877825
2012-09-18 00:00:00-04:00,0.0013260423580432185,0.015402541084269899,0.001808017759774892,0.03617072763073256,0.018927888340440978,0.02462566265707719,0.9688835740473833,0.03111642595261659
2012-09-19 00:00:00-04:00,0.0012733400249394227,0.015340400193718483,0.0022460383347208397,0.03601298380234165,0.01854949784687825,0.02428643473266717,0.9777769761229003,0.022223023877099755
2012-09-20 00:00:00-04:00,0.001067287582398435,0.015331064374595423,0.0030781281204780983,0.03495203597395631,0.017554281727398622,0.022336128299281416,0.9644030131224945,0.035596986877505524
2012-09-21 00:00:00-04:00,0.0010423934095400605,0.015262764263281258,0.0034919702356057936,0.034802661652157355,0.01713037668437477,0.022035365928407862,0.9772549969743283,0.022745003025671798
2012-09-24 00:00:00-04:00,0.0010599547130967027,0.015201262176577544,0.0031359897479064877,0.03475992474053705,0.016955686336297928,0.022221483351078024,0.9824650143526078,0.0175349856473922
2012-09-25 00:00:00-04:00,0.0010052194905807903,0.015158189989381307,0.002928016495679971,0.03486122752593923,0.016837240329110416,0.022238967736891636,0.9838917894068978,0.016108210593102166
2012-09-26 00:00:00-04:00,0.0009188667735634526,0.015097194480921358,0.0035161072528666314,0.03445520462829377,0.016511956401082717,0.02221843276453361,0.9844894950035081,0.01551050499649187
2012-09-27 00:00:00-04:00,0.0008011555518796636,0.0151153238087036,0.0036191597647854123,0.03461097581785172,0.01637348443260614,0.021924654857313722,0.9782134953878674,0.0217865046121326
2012-09-28 00:00:00-04:00,0.0009589976909117904,0.01518796955405795,0.0040263765388881476,0.034579866387022734,0.01660015811465704,0.022583879076754375,0.9573257800229611,0.04267421997703894
2012-10-01 00:00:00-04:00,0.0008754614252620494,0.01515777978825365,0.004436073975604321,0.0344742370656101,0.016315951448444808,0.022365863680024304,0.9692579547653353,0.030742045234664755
2012-10-02 00:00:00-04:00,0.000981250934395594,0.015143625872202247,0.003690610504961678,0.03368199307729259,0.015753230232431886,0.021325553183709878,0.9616053878037909,0.038394612196209085
2012-10-03 00:00:00-04:00,0.0010370375683779205,0.015098036323469564,0.0032876245143228394,0.03360506893660529,0.015584173345652345,0.021604173885612005,0.973278838253915,0.02672116174608497
2012-10-04 00:00:00-04:00,0.0008322022594998951,0.01533940248244525,0.0030577001809815748,0.033840898954489544,0.016855551531801405,0.022990694294126743,0.8491591021424152,0.15084089785758475
2012-10-05 00:00:00-04:00,0.0008153039688458371,0.015294518899251998,0.0035986185842939475,0.03354876269671029,0.0159815087553312,0.022247274061959893,0.921892192776599,0.07810780722340112
2012-10-08 00:00:00-04:00,0.0007625323973539152,0.01528423667194603,0.002975691610160702,0.03339883958504046,0.016621283691072897,0.02643352263011283,0.9381514060099989,0.06184859399000112
2012-10-09 00:00:00-04:00,0.000711049235018271,0.015236019698484975,0.0029544889295652042,0.033414999359234775,0.01569656117554395,0.02400576288559161,0.9657497211304045,0.03425027886959554
2012-10-10 00:00:00-04:00,0.0007742470585197031,0.015217344734753844,0.0028862463716762396,0.03357558592094851,0.015483191876529271,0.023362389954527107,0.9728061291047773,0.02719387089522281
2012-10-11 00:00:00-04:00,0.0006766489546863601,0.015216503582806136,0.0029974864905393654,0.03373914132133426,0.015291781065127793,0.023030767527997906,0.9739434955334733,0.026056504466526784
2012-10-12 00:00:00-04:00,0.0006859848914541966,0.015157383176777483,0.002526871967095268,0.033555135505517045,0.01505994180129151,0.02298111049080917,0.9811303678057013,0.018869632194298804
2012-10-15 00:00:00-04:00,0.0006103209254790954,0.015122905916378653,0.0028967826196587944,0.033525936271676236,0.01485455679597185,0.022813270209717507,0.9825138192369072,0.01748618076309278
2012-10-16 00:00:00-04:00,0.000738320532090518,0.015133658650070232,0.0022552937005661843,0.03329965676692691,0.01523808438638603,0.0249360832434943,0.9778827211390221,0.022117278860977904
2012-10-17 00:00:00-04:00,0.000941321778621114,0.015308517947669052,0.0020417121688679446,0.03360761723604253,0.016222537663719856,0.027020325005422844,0.9156290931120643,0.08437090688793578
2012-10-18 00:00:00-04:00,0.001029472597972026,0.015302210710987654,0.0021141899473053356,0.03381489835457661,0.015984582488021214,0.02653722847529457,0.9422794048564206,0.05772059514357944
2012-10-19 00:00:00-04:00,0.0010000545613725012,0.015258263798024295,0.001699970182192557,0.03382052349557684,0.015904423094018846,0.027801015907668265,0.9654888352626975,0.034511164737302535
2012-10-22 00:00:00-04:00,0.0009132121750573054,0.015270980249265976,0.0016474872217425217,0.03405542147744406,0.015841544437410076,0.027441562623233544,0.9669261489358959,0.03307385106410413
2012-10-23 00:00:00-04:00,0.0008456666674114036,0.01522743453532628,0.0021488995851209358,0.033923769334554134,0.0156720318195762,0.027991556221590178,0.9750453524785629,0.024954647521437126
2012-10-24 00:00:00-04:00,0.0007389082511465383,0.015259361943511665,0.0021880229508505107,0.03416995903370517,0.015650389014821308,0.027871861095100904,0.9697971096949332,0.03020289030506691
2012-10-25 00:00:00-04:00,0.0007525523352045045,0.015187823074871175,0.001471379350114328,0.03353565719525678,0.015136753804312003,0.026931766327809817,0.9784906766900247,0.021509323309975386
2012-10-26 00:00:00-04:00,0.0008498487565030861,0.015191543702034425,0.0011652990339076168,0.033703410230744996,0.015239335905143769,0.027681225280005328,0.9761676736847464,0.023832326315253578
2012-10-31 00:00:00-04:00,0.000900623185622382,0.015152473406467342,0.0019718659149819155,0.03296414917851991,0.014628237736199232,0.026016584019566157,0.9750623896102562,0.024937610389743826
2012-11-01 00:00:00-04:00,0.0010139915450048517,0.015182389443753757,0.0024911879059014044,0.03281374419463506,0.014592911343729215,0.026217799295838874,0.9635274478950645,0.036472552104935406
2012-11-02 00:00:00-04:00,0.0009934848221248777,0.015036109476786016,0.0011217242949508593,0.029678842802403158,0.013006531476351372,0.02175852437165412,0.9731428315400036,0.026857168459996323
2012-11-05 00:00:00-05:00,0.0009162040177422921,0.015066165710712766,0.0006117222050577745,0.029723996459437865,0.013693235502588485,0.026223871077344182,0.9695867924811337,0.030413207518866364
2012-11-06 00:00:00-05:00,0.0009776817705691525,0.015046214580690628,0.00045770790520571097,0.029796842095394103,0.013489387267118817,0.025238145987137823,0.971724379423344,0.028275620576656106
2012-11-07 00:00:00-05:00,0.0011717738381712404,0.015303196707360942,0.0006546704760804182,0.03003350339118646,0.015625577416475342,0.026412856362027053,0.6872132549739166,0.3127867450260834
2012-11-08 00:00:00-05:00,0.001109167909639355,0.015323926974895742,0.0004894424767861709,0.030182581271422534,0.015250193629373207,0.02562153612375221,0.7303729849486347,0.26962701505136527
2012-11-09 00:00:00-05:00,0.0009858629707857173,0.015314669285768252,0.000754257944392694,0.03017958050608897,0.01867025069591526,0.02968683517577668,0.34141294911834613,0.6585870508816539
2012-11-12 00:00:00-05:00,0.0009348709115580789,0.0153653878601267,0.0004973687493666564,0.030227922141561277,0.017672320621199583,0.02908747982089522,0.48549804804324553,0.5145019519567544
2012-11-13 00:00:00-05:00,0.000833776904693276,0.015461112773459346,0.0001969719676925395,0.03059049805163094,0.0181332212540251,0.038698653357314476,0.686508480013973,0.3134915199860269
2012-11-14 00:00:00-05:00,0.0008849377352422002,0.015454866752200716,0.00017753750527998223,0.030531777442220374,0.016217647440780775,0.03325314265279161,0.8166897312418573,0.18331026875814266
2012-11-15 00:00:00-05:00,0.0008196764715278401,0.015472746391745095,0.00028062514121482743,0.030650991422340953,0.015786351234432318,0.032008338740288834,0.8432854192167694,0.15671458078323058
2012-11-16 00:00:00-05:00,0.0009570524064836493,0.015518895780048256,0.0005017371584033124,0.030790145273400068,0.01593779371089679,0.032087836175593624,0.811569842328248,0.188430157671752
2012-11-19 00:00:00-05:00,0.0009855574427215746,0.01552178931021979,0.0009823138695431628,0.031125477085813338,0.01691133063471978,0.04050332109721448,0.8963917872995975,0.10360821270040263
2012-11-20 00:00:00-05:00,0.0010760777513351071,0.015532372365554388,0.0008708140815355208,0.031212113257611456,0.01609368608173333,0.03704807068078868,0.9169427969439815,0.08305720305601841
2012-11-21 00:00:00-05:00,0.0010290651189954103,0.015517133877613758,0.0011138076088395123,0.03137800798684879,0.015798555267806474,0.03690386946122104,0.942293422988432,0.05770657701156808
2012-11-23 00:00:00-05:00,0.0010700967442690426,0.015488024729676576,0.00125731546292228,0.031636924774228505,0.015555024289419265,0.03657212050959025,0.9640555066076569,0.03594449339234311
2012-11-26 00:00:00-05:00,0.0010995275689083327,0.015442381709001446,0.0018232514391115042,0.03154279564119882,0.015537069554054466,0.0380281511885531,0.973370382067793,0.026629617932206914
2012-11-27 00:00:00-05:00,0.0009952890589456957,0.015490577539052993,0.0019608973427945164,0.031859565411224824,0.015594693715842552,0.03821218430996227,0.9623612061579934,0.0376387938420066
2012-11-28 00:00:00-05:00,0.0009261723221816966,0.015480587263425369,0.0011503103609393842,0.03134503208863369,0.015521196928012274,0.03864355654452261,0.9631830812218366,0.03681691877816348
2012-11-29 00:00:00-05:00,0.0010014067014853577,0.015471896016934657,0.0006633554072382101,0.0316018262410138,0.01600935316354958,0.04155151052482106,0.9700266320040405,0.02997336799595957
2012-11-30 00:00:00-05:00,0.0011840208971656406,0.01572769295530405,-0.0014124942291749993,0.03498915706017635,0.024837730807285456,0.12323307816352115,0.972812132756569,0.02718786724343103
2012-12-03 00:00:00-05:00,0.0012193557973665743,0.01563596215962222,-0.0011632983255927725,0.03431795722346915,0.02342746840891403,0.10692804058362067,0.9779222808026797,0.02207771919732022
2012-12-04 00:00:00-05:00,0.0011482248329559108,0.015508290755887711,-0.0007147863577643887,0.0331503280868729,0.020210585734416395,0.0761864761208162,0.9804818645256215,0.01951813547437849
2012-12-05 00:00:00-05:00,0.0011118256575238096,0.015407230191802,-0.00041672281316851854,0.032730593149771975,0.018271009303594363,0.06077696939559638,0.9830595852629359,0.01694041473706406
2012-12-06 00:00:00-05:00,0.0011697887072722071,0.015413194837698372,-0.0010100364234732434,0.03319119714756311,0.019180542693565623,0.0684464145046639,0.9797245940495779,0.02027540595042209
2012-12-07 00:00:00-05:00,0.0011668429321345698,0.015368192185573292,-0.0007404101196713185,0.03340818377500689,0.018985903698350806,0.06762489581678151,0.9819609458208506,0.01803905417914941
2012-12-10 00:00:00-05:00,0.0011268601091232232,0.015345565886214952,-0.00031585585647887543,0.03363291000787729,0.018888082742444398,0.06899840450740138,0.9807792881890173,0.019220711810982817
2012-12-11 00:00:00-05:00,0.0011435396036431128,0.015339453800964652,-0.0010781070783844778,0.034084954372709184,0.019766025028345117,0.07760341253414497,0.9827783624962368,0.017221637503763126
2012-12-12 00:00:00-05:00,0.0011917530479159727,0.015329018587571401,-0.0006200997925403914,0.034478511013856974,0.020040928669438286,0.08249942543819472,0.9826961428356127,0.017303857164387357
2012-12-13 00:00:00-05:00,0.0012887296488084744,0.015364245332976922,-0.00019397120309621395,0.035011520799703516,0.02036012760053859,0.08860473167380839,0.9764353489389038,0.023564651061096106
2012-12-14 00:00:00-05:00,0.0012703153231543663,0.015427935612311434,0.0007567627981995112,0.0339190801707489,0.011758033966928209,0.06285225424311204,0.9775356921895533,0.022464307810446664
2012-12-17 00:00:00-05:00,0.0012187307705523315,0.015390346099496008,0.0007878023595141901,0.03386671435199487,0.011949247576935038,0.06242981813928576,0.9844923382127352,0.015507661787264763
2012-12-18 00:00:00-05:00,0.0010229739335610218,0.015166225423557162,0.0012861345465942744,0.03200822264238186,0.007755142231160229,0.03713726692297642,0.9864878787088491,0.013512121291150946
2012-12-19 00:00:00-05:00,0.0012667023264455674,0.015174664413908398,0.0012504839334724176,0.03211823793793226,0.008015381378531432,0.03823770597590655,0.975612666677275,0.024387333322724983
2012-12-20 00:00:00-05:00,0.0010701599186645342,0.015101538558634501,0.0012775497761345802,0.03200220057248377,0.0077200753620089374,0.03697406956672751,0.9803089173551461,0.01969108264485388
2012-12-21 00:00:00-05:00,0.0011371615346974966,0.01513789639581356,0.0012786893201018146,0.03200552142217507,0.0077007113642607065,0.03720617705014761,0.9819714680859085,0.018028531914091463
2012-12-24 00:00:00-05:00,0.0010972965937774692,0.015148118090676253,0.0012793586068632205,0.032004150926942115,0.007684591841799675,0.037087909598852505,0.9868690902001084,0.013130909799891705
2012-12-26 00:00:00-05:00,0.0010665554160253757,0.015156392006053896,0.0012850201964208943,0.03199536192407628,0.007708741359683349,0.03704471639304882,0.9893179883694375,0.01068201163056253
2012-12-27 00:00:00-05:00,0.0009764963582210591,0.015165852549513352,0.0012961163317463042,0.03197640010873091,0.007749889544665815,0.0368456010057433,0.9895053687109487,0.010494631289051292
2012-12-28 00:00:00-05:00,0.0011071137250783787,0.015037218495627988,0.001304497146696309,0.031897259658141205,0.007536421617880371,0.035954513568867814,0.9917454219674363,0.008254578032563726
2012-12-31 00:00:00-05:00,0.0008898162316193466,0.015107398976315347,0.0013408960851978536,0.031855522925135195,0.007438013176809199,0.035249215933463654,0.978134613564488,0.021865386435511943
2013-01-02 00:00:00-05:00,0.0009576273029747832,0.015158036353112787,0.0013441519277749639,0.03190196743318246,0.00759894302155242,0.03608067894582474,0.9767389857383821,0.02326101426161781
2013-01-03 00:00:00-05:00,0.0009276918211954724,0.015104182942544113,0.001345267530458107,0.031867546092902724,0.007502765236215366,0.0355103959355475,0.9653653068893084,0.034634693110691665
2013-01-04 00:00:00-05:00,0.0009413356765318424,0.015107041859150424,0.0013432257613704285,0.03186001989666658,0.007411204749417135,0.03531017690903474,0.9802183407215319,0.019781659278468085
2013-01-07 00:00:00-05:00,0.0009796999013434364,0.01512911836831798,0.0013409609080048456,0.03186801573542152,0.007440772120441428,0.035548345880619114,0.9837663231817154,0.01623367681828464
2013-01-08 00:00:00-05:00,0.0009738781001881452,0.015126826568821899,0.0013397040322134343,0.031867866614789464,0.007511993046744861,0.035684593164743705,0.9888455068295837,0.01115449317041634
2013-01-09 00:00:00-05:00,0.0009121421465179776,0.015162663455689956,0.001344172964046815,0.031921115313458176,0.007789755211939129,0.03647954752982361,0.9865287356636343,0.013471264336365698
2013-01-10 00:00:00-05:00,0.00074628880374201,0.014977122068063089,0.001413176590837457,0.03161740755656621,0.006877612383977803,0.03257921070514357,0.990947933555726,0.009052066444274037
2013-01-11 00:00:00-05:00,0.0009224310263933074,0.014902616522206017,0.0013939910392948267,0.03160832957484027,0.0068903434569729605,0.032740978218306044,0.990878778633781,0.00912122136621888
2013-01-14 00:00:00-05:00,0.0008580047040327767,0.01489531175369834,0.0014034755806196573,0.03159077740500485,0.0068482267339711874,0.03254994991485739,0.9923302484239968,0.007669751576003192
2013-01-15 00:00:00-05:00,0.0008596929201701798,0.014893849490242035,0.0014056710403559268,0.03158674384403827,0.00685773251827524,0.032477291864141465,0.99234781231497,0.007652187685030016
2013-01-16 00:00:00-05:00,0.0008504988956560826,0.01489002708561893,0.0014089962564189508,0.03157796591784913,0.006869724070789853,0.03244458422683732,0.9930271337262235,0.006972866273776501
2013-01-17 00:00:00-05:00,0.0007772112448278097,0.014846148562145204,0.0014211810874661828,0.03153146954786538,0.006792190205558693,0.031945689201357076,0.9936150336921168,0.006384966307883193
2013-01-18 00:00:00-05:00,0.0008192908015932527,0.014845452762524608,0.001414250505789353,0.031532023866716115,0.0068773163120490035,0.0321734055822511,0.9935612017893183,0.006438798210681678
2013-01-22 00:00:00-05:00,0.0009449387698126,0.0147832377108696,0.0014023898004149572,0.03152481177856518,0.006922590525808373,0.03233603204871978,0.993515449578103,0.006484550421896978
2013-01-23 00:00:00-05:00,0.000807356905557974,0.014686135007736254,0.0014229182646921452,0.03143741068287884,0.00672607491980078,0.03133225983507707,0.99389487329349,0.0061051267065100005
2013-01-24 00:00:00-05:00,0.0007845300673017158,0.014702989745466645,0.0014336973226757664,0.031430261271252896,0.0067285405504972804,0.03130527096560762,0.9913654404589071,0.008634559541092938
2013-01-25 00:00:00-05:00,0.0006787540504423087,0.014618827464882784,0.0014517212496090418,0.03136009693281811,0.006578954143334386,0.030584215969034143,0.9930953487615362,0.006904651238463749
2013-01-28 00:00:00-05:00,0.0007895497294111471,0.014541528289352557,0.0014421866853187356,0.0313198909153343,0.006546992274215651,0.03048281308386138,0.9938212458526003,0.00617875414739977
2013-01-29 00:00:00-05:00,0.0007756217383115877,0.014549194670973846,0.0014463549835516667,0.03132108739107175,0.00654723221007614,0.030475699890652335,0.9931855618927181,0.006814438107281894
2013-01-30 00:00:00-05:00,0.0008323805520576269,0.0146151901499466,0.0014385637918234169,0.031369226013511504,0.006639389587791168,0.03092148919945943,0.9856460234486538,0.014353976551346074
2013-01-31 00:00:00-05:00,0.0007651464818449348,0.014612131966119348,0.0014465995907427765,0.03136115561444642,0.006597113565444776,0.030773080429403292,0.9898561690630414,0.01014383093695862
2013-02-01 00:00:00-05:00,0.0007206993968065703,0.0146346229049037,0.0014563603935000078,0.03136497617990234,0.006591567283500763,0.030690159304849546,0.99036445777889,0.009635542221109912
2013-02-04 00:00:00-05:00,0.0008448116131200536,0.01477981812267488,0.001443236068664621,0.03148076944265324,0.0069122726223093955,0.03200678116336177,0.9679132827834577,0.032086717216542236
2013-02-05 00:00:00-05:00,0.0006646956032012161,0.014697354318427905,0.0014575011943696288,0.03141060532601045,0.006691986224157088,0.03100311642507484,0.9780264606529467,0.02197353934705331
2013-02-06 00:00:00-05:00,0.0006791333337847502,0.014708851058611397,0.001461589998832052,0.031407128203467354,0.006632338272791161,0.030922519063508118,0.9833907480010102,0.016609251998989685
2013-02-07 00:00:00-05:00,0.0006626081482614744,0.014700478080680514,0.001464374977104008,0.031398843859959516,0.006586036285314991,0.030786409694823005,0.9885917294520178,0.011408270547982153
2013-02-08 00:00:00-05:00,0.0006523695579173744,0.014699552278085457,0.0014670777482041245,0.03139222253816873,0.006558333893368778,0.03070432956518977,0.9917240348851101,0.008275965114890012
2013-02-11 00:00:00-05:00,0.0007466996379265201,0.0148162652324075,0.0014565391170444782,0.031473532975351895,0.006758077575942394,0.03160086395196669,0.9758246865817136,0.024175313418286458
2013-02-12 00:00:00-05:00,0.0007807350901795553,0.014810877998481093,0.0014428632769306138,0.03148542041019886,0.006764901992102144,0.03168925168052361,0.985710786164345,0.014289213835654895
2013-02-13 00:00:00-05:00,0.0007382939994723286,0.014783063151650446,0.0014463445358420962,0.03146316482324392,0.00672654355655209,0.03144211550137255,0.9898000604810065,0.010199939518993539
2013-02-14 00:00:00-05:00,0.0007009078052094687,0.014783300585206868,0.00145315075589288,0.03145008040179775,0.00676513702042952,0.03141092929228802,0.9918388406618334,0.008161159338166578
2013-02-15 00:00:00-05:00,0.000640584438019975,0.014764839450031618,0.0014567795781411893,0.03143380563856442,0.00684029384674622,0.03137208645003573,0.9929248874291607,0.007075112570839248
2013-02-19 00:00:00-05:00,0.00035860811609329465,0.014842959083493944,0.0014666633081106553,0.03143513493869878,0.006783713649082337,0.030980093233521522,0.9654002324703368,0.03459976752966323
2013-02-20 00:00:00-05:00,0.0005860478432772175,0.014749842792581779,0.0014639666603451613,0.03141137863387201,0.006703822824121103,0.03096956144927344,0.9676942939824351,0.03230570601756477
2013-02-21 00:00:00-05:00,0.0003867550061905054,0.014889249347914956,0.0014174098041919222,0.0314576387865527,0.007073443788477105,0.031685252591884996,0.9105857327049125,0.0894142672950876
2013-02-22 00:00:00-05:00,0.0002833225120058759,0.014998755953661642,0.0013053310910985999,0.03150489710061304,0.0075213416921059316,0.032660339015293915,0.8608510299193695,0.13914897008063054
2013-02-25 00:00:00-05:00,0.0002790223392774435,0.015026326801981687,0.0013887991582395552,0.03150429122133955,0.007214957918567681,0.03218683287071157,0.9180879438930978,0.08191205610690226
2013-02-26 00:00:00-05:00,0.00012532075585936487,0.015127621655727055,0.0012453168502842191,0.031495687007446996,0.007729667471530349,0.0329423426238441,0.8513829393208702,0.14861706067912978
2013-02-27 00:00:00-05:00,0.0002640409788497153,0.015129152435072225,0.0013137983828009115,0.03153149621251453,0.0076283835169790384,0.03322874390780977,0.8916703118153259,0.10832968818467408
2013-02-28 00:00:00-05:00,0.00039040643299390743,0.015211372924163306,0.0012052432916567603,0.03166545741893092,0.008908537686584325,0.03649937571781146,0.8058923325606212,0.19410766743937874
2013-03-01 00:00:00-05:00,0.00044532240446518926,0.015164601296315063,0.001273016857037246,0.031664187449656225,0.008214906974820248,0.035421753508512434,0.8855465541226568,0.1144534458773431
2013-03-04 00:00:00-05:00,0.00018524054454663812,0.015111707687067988,0.0013114640448352657,0.031435979042166405,0.007551158881476162,0.0326708181522411,0.8833365814613939,0.11666341853860604
2013-03-05 00:00:00-05:00,0.00025328675254312474,0.015027228837049732,0.0013608442924104695,0.03142942261311009,0.007179668622789334,0.03215125962966885,0.9282828520838472,0.07171714791615268
2013-03-06 00:00:00-05:00,0.0004094275587195033,0.015111473851965748,0.0013457902737189303,0.031470125399060536,0.0074708544721506275,0.0331931781421375,0.9051053712181085,0.09489462878189149
2013-03-07 00:00:00-05:00,0.00046313242560544677,0.0151373964664524,0.0013732580501943491,0.03156935097871429,0.007322129580695364,0.03359655113318064,0.9484696189478815,0.05153038105211853
2013-03-08 00:00:00-05:00,0.0005238030670928088,0.015183437135381653,0.0013762849552236684,0.03164173994508441,0.007379614388729037,0.034258031376287704,0.959876109565666,0.04012389043433397
2013-03-11 00:00:00-04:00,0.0005114972997352202,0.015180321406404004,0.0013796193507700978,0.03167658366427889,0.007332086000322311,0.03433418537075558,0.9749619496174311,0.025038050382568938
2013-03-12 00:00:00-04:00,0.00048531627425743194,0.015179259808593231,0.0013823131727173305,0.031688744316178845,0.007332493684649022,0.03437141012508271,0.9847681791685711,0.015231820831428931
2013-03-13 00:00:00-04:00,0.0006052243142183753,0.015176987432639762,0.0013611856685180103,0.03174578036178443,0.007538068429571351,0.035010420908566216,0.9869775543960077,0.013022445603992223
2013-03-14 00:00:00-04:00,0.00044716159990433775,0.015047314375977724,0.0013887328163371439,0.03162511789630007,0.007180165205081504,0.03355738023420283,0.9905356083205268,0.009464391679473178
2013-03-15 00:00:00-04:00,0.0006193817206502305,0.01501867030459779,0.0013744023781440315,0.0316219760811804,0.007204024515790558,0.03392852170418171,0.9888027696953671,0.01119723030463287
2013-03-18 00:00:00-04:00,0.0005211290550320741,0.015030176423564988,0.001384157815010656,0.0316097595562851,0.0071680181606529805,0.03361185667914292,0.9894338965364773,0.010566103463522719
2013-03-19 00:00:00-04:00,0.00040749136085094814,0.015037033609096537,0.0013994142797900465,0.03157540768091153,0.007093100517751453,0.03325712444912563,0.9896709335140002,0.010329066485999835
2013-03-20 00:00:00-04:00,0.0003175580305822164,0.015060637119732552,0.0013972909678001745,0.031561432943111686,0.007116508975396144,0.03295328072868819,0.9891538504797789,0.010846149520221122
2013-03-21 00:00:00-04:00,0.0003876648975283015,0.014976920938827173,0.0014100153219066055,0.031523850349873844,0.007034874450747701,0.032691600849386576,0.9906576131031815,0.009342386896818544
2013-03-22 00:00:00-04:00,0.0003350786894180985,0.015026750686916026,0.0014057244701610092,0.0315431481816182,0.007140661313801001,0.03291966014815789,0.9860480253671331,0.013951974632866928
2013-03-25 00:00:00-04:00,0.0005322847070706297,0.014868766814916242,0.001402837849512243,0.031491803578968684,0.0070202253294697455,0.03269891918770486,0.9888772739778426,0.011122726022157301
2013-03-26 00:00:00-04:00,0.0004171540685182899,0.014854906308932993,0.0014269976046124948,0.03144986858452357,0.006898243811639719,0.03225932719271514,0.9905876641977958,0.009412335802204333
2013-03-27 00:00:00-04:00,0.0006395257845920403,0.015134543838624077,0.0013171199529224613,0.031962615108691604,0.008762898205409311,0.03920520537957646,0.8767382343581522,0.12326176564184779
2013-03-28 00:00:00-04:00,0.0006603272023777106,0.015142283930103308,0.001282567046703742,0.03191489040295258,0.008325654044137158,0.03802018908163726,0.9356382333836586,0.06436176661634134
2013-04-01 00:00:00-04:00,0.000728039465381319,0.015102269893972797,0.0012845423965254861,0.03184053994486672,0.00801772601873029,0.03707035663969843,0.966473247219254,0.03352675278074605
2013-04-02 00:00:00-04:00,0.0007738407791720125,0.015092902790020549,0.0012790221959091764,0.0318061070735595,0.007991749015106627,0.036934122643472074,0.9803845317257146,0.01961546827428539
2013-04-03 00:00:00-04:00,0.0006970153188501656,0.01503149372573675,0.0012839658329353483,0.03172943731810555,0.007816558149732592,0.03589615147480484,0.9869511091479909,0.013048890852009127
2013-04-04 00:00:00-04:00,0.00046887935672881463,0.0150571029222649,0.0013234801558975541,0.03165222256384845,0.007552500970138001,0.03451075348288651,0.9765139456863765,0.023486054313623456
2013-04-05 00:00:00-04:00,0.000342589985503834,0.015166295635722112,0.0012728282079376536,0.03166003338772104,0.007792660255329051,0.034910236857094636,0.9560979504219073,0.04390204957809265
2013-04-08 00:00:00-04:00,0.0005447581086367608,0.01508529165834687,0.001314800539957828,0.031676310171595716,0.007669947949719982,0.0350383413707926,0.9638566259494916,0.03614337405050841
2013-04-09 00:00:00-04:00,0.000710802453228096,0.015104837333209487,0.0012676339062635646,0.03175797555032762,0.007999957509471661,0.03600673844016674,0.9662329041294437,0.03376709587055619
2013-04-10 00:00:00-04:00,0.000848933785014379,0.015074194231812946,0.0012293828032933676,0.03183627258959734,0.008274222612776558,0.03784026474954026,0.9764227890732979,0.023577210926702147
2013-04-11 00:00:00-04:00,0.0010204163513884642,0.014888233748121045,0.0012454499586487433,0.03177116631566099,0.007946383293808909,0.0368672294914049,0.9856263780102882,0.014373621989711817
2013-04-12 00:00:00-04:00,0.0010545423105618565,0.014864685313783653,0.0012537711695547872,0.031738209052812515,0.007912150751118124,0.03670182171817961,0.9894925710695345,0.010507428930465438
2013-04-15 00:00:00-04:00,0.0007743179919609591,0.014950006099253735,0.001277675607710115,0.03172274096913677,0.007841489091917345,0.035918542070334576,0.9543193086547936,0.045680691345206345
2013-04-16 00:00:00-04:00,0.001307789575969941,0.015020349800395311,-0.002644578239144481,0.03640016857758054,0.02536837465044475,0.1226544445143145,0.005505722713472622,0.9944942772865273
2013-04-17 00:00:00-04:00,0.0013410345906865206,0.015012804275866815,-0.001827933551062866,0.03573615557080213,0.02493651149723018,0.11409441914302051,0.10578629921593288,0.8942137007840671
2013-04-18 00:00:00-04:00,0.001219675518906326,0.014950218831218779,-0.002274866227624797,0.03503222841589459,0.02301161646189468,0.09382161689847487,0.03175233594280679,0.9682476640571933
2013-04-19 00:00:00-04:00,0.0012679371304124395,0.014970192011850465,-0.002231456523115798,0.0348648300886835,0.024310249025847476,0.10320525283938602,0.2643528553851119,0.7356471446148882
2013-04-22 00:00:00-04:00,0.0012605308155592613,0.015036191318163555,-0.002547470157200125,0.03492879815961257,0.025405502673130513,0.11137825157863979,0.41316127559974347,0.5868387244002565
2013-04-23 00:00:00-04:00,0.001355602439565357,0.01505809513217404,-0.0020574628650530686,0.03446803696032291,0.024688548057875213,0.10288741682105011,0.3927629419302013,0.6072370580697987
2013-04-24 00:00:00-04:00,0.0013956343671116835,0.015225382604762777,-0.0028232005276460845,0.03621744364810145,0.02873056763009749,0.15019293252982097,0.7789538523129874,0.22104614768701253
2013-04-25 00:00:00-04:00,0.0014505954393069346,0.015308799717478935,-0.002701778875696078,0.036289380787909324,0.02884046165726047,0.15260353295414095,0.7897192825385032,0.21028071746149682
2013-04-26 00:00:00-04:00,0.0014479050234454368,0.01534015766921118,-0.002976319660171171,0.036908686828287636,0.029750626787159794,0.16738865143123274,0.8912780744883185,0.10872192551168154
2013-04-29 00:00:00-04:00,0.0012460439075673278,0.015377015808895788,-0.0029322087109158244,0.03679336984332018,0.029737673680168164,0.16561649939829728,0.8580573888385936,0.14194261116140633
2013-04-30 00:00:00-04:00,0.0013260624339499177,0.015466251767396511,-0.002914896938563117,0.036942996620452404,0.02972606745930796,0.16932930698607473,0.8726865892757427,0.12731341072425728
2013-05-01 00:00:00-04:00,0.001271505955402915,0.015512599536969183,-0.0031455523561261037,0.03742703289466524,0.030134312544527992,0.17940707196704597,0.9391813491151874,0.06081865088481262
2013-05-02 00:00:00-04:00,0.0011201308035600345,0.01556598839837984,-0.0031638361182023947,0.037485974368358876,0.030221186567189397,0.18101951015910658,0.9301609588660841,0.069839041133916
2013-05-03 00:00:00-04:00,0.0012417437806498883,0.015511593125692733,-0.0032018195533358904,0.03749322762928511,0.0302917659188988,0.1819598569845793,0.9614154586959915,0.03858454130400846
2013-05-06 00:00:00-04:00,0.0014657772533585773,0.0156562252787352,-0.003168600218461317,0.03762231655406506,0.031074816806908007,0.1859569696467155,0.847080402955297,0.152919597044703
2013-05-07 00:00:00-04:00,0.0016629701839274392,0.015600117786496878,-0.0032445299393663637,0.03758929140161349,0.030917355228871235,0.18625295268788397,0.9092501752654213,0.09074982473457864
2013-05-08 00:00:00-04:00,0.001518892371552249,0.01548968173246226,5.229749555142515e-05,0.03806515127133947,0.03737661034835189,0.17801126339771797,0.0009462889653950696,0.9990537110346049
2013-05-09 00:00:00-04:00,0.001583564337083391,0.015500035629706194,0.000334744610639113,0.037589797964844164,0.03824444348868604,0.1791823220452172,0.2707637318332292,0.7292362681667708
2013-05-10 00:00:00-04:00,0.001521079721773172,0.015513430460594895,9.563715028321757e-05,0.03745922712749591,0.03955236664287901,0.1886679891421788,0.5292185358324004,0.47078146416759964
2013-05-13 00:00:00-04:00,0.0014221208475484145,0.015533441757595454,-0.00015831862070095777,0.037337447511391064,0.04053582961591246,0.19051789716116435,0.6424677177080655,0.3575322822919345
2013-05-14 00:00:00-04:00,0.0014908286422804827,0.015527430169511091,-8.812197070837301e-05,0.038398740116719475,0.04227824988654291,0.22185126387532147,0.8743542650756704,0.12564573492432962
2013-05-15 00:00:00-04:00,0.0017164089471204528,0.01544006173726588,5.219225932723935e-05,0.03842327413789226,0.041679185430421505,0.222744126924304,0.8847646154175196,0.11523538458248034
2013-05-16 00:00:00-04:00,0.0017362893613847824,0.01541935931692109,2.8453685231213344e-05,0.03844258354815158,0.04169735113224489,0.2243702597511818,0.914742903281307,0.085257096718693
2013-05-17 00:00:00-04:00,0.001692739905619978,0.015443748122619153,4.902026598109002e-05,0.038496558341036796,0.04198768609830675,0.22521980925790994,0.9411955135113684,0.058804486488631486
2013-05-20 00:00:00-04:00,0.0018410086181253082,0.015405197215988119,6.631424958091319e-05,0.03841793286183054,0.04213133220719738,0.2228317795337498,0.9511965048114204,0.04880349518857971
2013-05-21 00:00:00-04:00,0.0018812438124865983,0.015306262636977,0.0002603565392285692,0.03789146476709016,0.0421057994854263,0.210090953137153,0.9656225013302873,0.03437749866971271
2013-05-22 00:00:00-04:00,0.001705962367738014,0.015146161272424375,-0.00010076781587664765,0.038188169322826745,0.04097347076540864,0.21519051144639123,0.9656127018191869,0.034387298180813014
2013-05-23 00:00:00-04:00,0.0015199894311551027,0.015269429675058286,-6.308020266162073e-05,0.03831316865931464,0.04088507030319183,0.21643355852895116,0.906868631019682,0.09313136898031817
2013-05-24 00:00:00-04:00,0.0015110840409978989,0.015220835873331404,4.63763857330357e-05,0.03766280764197976,0.03943101830620263,0.19536556701431088,0.9515544997633766,0.04844550023662337
2013-05-28 00:00:00-04:00,0.0014852326641892329,0.015064323722413411,0.0004175854604092451,0.03617776594774008,0.03617251240113812,0.15172066012006846,0.9635796698832881,0.0364203301167119
2013-05-29 00:00:00-04:00,0.0011871383300279675,0.014667795860676378,0.001445812752930102,0.032400546004465555,0.02141049615078857,0.054978749091158664,0.9702442542298738,0.02975574577012617
2013-05-30 00:00:00-04:00,0.0013454375004451602,0.014690852943488557,0.0006890533694931183,0.03318583193952255,0.025240227081398364,0.07211834976619065,0.9702811279408321,0.029718872059167834
2013-05-31 00:00:00-04:00,0.0014917961245922567,0.015111256792056703,0.0004106538937062787,0.03863420216824925,0.03888295407755394,0.2049876432494678,0.9747191324726674,0.025280867527332627
2013-06-03 00:00:00-04:00,0.0013717425665439537,0.01526017702534821,0.000764431908563241,0.03967355347598367,0.038618382987349174,0.21469048366953686,0.9069738979391885,0.09302610206081156
2013-06-04 00:00:00-04:00,0.0014392486709124536,0.015373316668766906,0.0032772686146978424,0.03907452638994562,0.03190607944421601,0.22077877483471417,0.9311034053175679,0.06889659468243214
2013-06-05 00:00:00-04:00,0.0015176055630763319,0.015327604704789458,0.0032737007939943876,0.03895709991427785,0.03196309500136065,0.21893949030752932,0.9648871858763352,0.0351128141236648
2013-06-06 00:00:00-04:00,0.001310389107516291,0.015424257060353903,0.003323134757030483,0.03900700501851255,0.032306483416807585,0.21998519853341403,0.9059390503049551,0.09406094969504487
2013-06-07 00:00:00-04:00,0.0012434810676127765,0.015310664105861535,0.0032608757348458074,0.03905209709526046,0.03172839462694571,0.2201984243559535,0.9356741062841788,0.06432589371582126
2013-06-10 00:00:00-04:00,0.0012941141615065894,0.015339323752870842,0.0032240288965805952,0.0389782796853991,0.03167218457909638,0.21716241168727593,0.9519593226940443,0.048040677305955806
2013-06-11 00:00:00-04:00,0.0013337831263465244,0.015287488377802833,0.0031905191234792656,0.03877458201801055,0.03154885155392028,0.2115563668146842,0.9675399677135538,0.03246003228644629
2013-06-12 00:00:00-04:00,0.0013321183587087853,0.015273950411503253,0.003252988928011368,0.03875670034303062,0.03141696260824853,0.21006918519310663,0.9538828718991131,0.04611712810088693
2013-06-13 00:00:00-04:00,0.001247013501432301,0.015186565996517977,0.003183081559267403,0.03869938818097428,0.031174757672522178,0.2082076171253618,0.9725471863479288,0.02745281365207122
2013-06-14 00:00:00-04:00,0.0014371139885190358,0.015251720756549474,0.0032608306488404147,0.03858264973594119,0.03107350147747051,0.20169620129621993,0.9209152007306085,0.07908479926939145
2013-06-17 00:00:00-04:00,0.0013103988090013103,0.015214056698108842,0.0031194771819881358,0.03832839045037393,0.030140717671577204,0.18919195767684438,0.9482232863026226,0.051776713697377366
2013-06-18 00:00:00-04:00,0.0013010944047888815,0.01516906415930182,0.0028693255453954513,0.03849109522569848,0.029747958435957223,0.1880778915300464,0.9644237656696921,0.03557623433030788
2013-06-19 00:00:00-04:00,0.001409848892489308,0.015134457932215692,0.0031637408342858548,0.038686282831321354,0.02936788096507455,0.18540133631364045,0.9707779507267331,0.029222049273266937
2013-06-20 00:00:00-04:00,0.0014124842177572988,0.015097704792438512,0.0028978522293679008,0.03894563362652251,0.028188041563412914,0.17227805625883952,0.9793853631554893,0.020614636844510675
2013-06-21 00:00:00-04:00,0.0012575611279556178,0.015279008880041783,0.00406357763949118,0.039750338071011394,0.029002014203621574,0.19049731429527264,0.8601587079995537,0.1398412920004463
2013-06-24 00:00:00-04:00,0.0010929629292896303,0.01550195302657641,0.010424282054225624,0.04266792190636849,0.029753103805629347,0.33633303262699815,0.9633163544501883,0.036683645549811635
2013-06-25 00:00:00-04:00,0.0009394731985102819,0.015558878980614277,0.010311355054746998,0.042548001040805264,0.029755439818811104,0.32943704825552905,0.9532519992764873,0.04674800072351274
2013-06-26 00:00:00-04:00,0.0011552274998988684,0.015482014450211237,0.010593859484736803,0.042770745670789284,0.029604410095631143,0.3376060287550935,0.9499908746259729,0.05000912537402722
2013-06-27 00:00:00-04:00,0.001255833655201362,0.015469504324612604,0.010463713583674672,0.042446789548897586,0.029157791644258985,0.31906785581834846,0.9685116704618997,0.03148832953810041
2013-06-28 00:00:00-04:00,0.0011599131908382467,0.0154220634218212,0.010278935012452134,0.04263359574469928,0.028769112299361153,0.31206932446082625,0.9807159116885479,0.01928408831145213
