Date,a1,sigma1,a2,sigma2,p12,p21,p1_final,p2_final
2010-12-31 00:00:00-05:00,0.002977542217392585,0.00951467029161996,-0.0001401284588120846,0.020208802952662242,0.016121837759758614,0.02297860466425676,0.9808860894131679,0.019113910586832088
2011-01-03 00:00:00-05:00,0.002977433249045441,0.009488725696150392,-9.156257633126036e-05,0.020147461324611083,0.015469856031401122,0.020424091354462923,0.9842011970285492,0.01579880297145068
2011-01-04 00:00:00-05:00,0.0029699324735631897,0.00943809793937245,-0.00015752710113111048,0.02014219451501737,0.015243880838782526,0.019818962967532897,0.9850861701231854,0.014913829876814645
2011-01-05 00:00:00-05:00,0.0028417957380961847,0.009557243106901097,-0.00018201786605084435,0.020155223960499694,0.014949709015257747,0.01793651289353366,0.9420617776935764,0.0579382223064236
2011-01-06 00:00:00-05:00,0.002872294234683709,0.009522098450916781,-0.00016326212940001033,0.020203595549440304,0.014436524288296436,0.016830185893258735,0.9661447512161736,0.03385524878382649
2011-01-07 00:00:00-05:00,0.0028263588493351068,0.009500404771679126,-0.00014998622579796706,0.020275894757595114,0.014121361298195658,0.016233899897070362,0.9728663875311999,0.027133612468800083
2011-01-10 00:00:00-05:00,0.0027033046962876032,0.009605066944197405,-4.855127534759129e-05,0.02033431294465475,0.014469896834264575,0.01668584592148858,0.9191090790599445,0.08089092094005537
2011-01-11 00:00:00-05:00,0.0026958566439412067,0.009569728022861148,-0.00012830824885295256,0.020398951509976632,0.014037784538055082,0.016329464729073494,0.9558858547124774,0.04411414528752258
2011-01-12 00:00:00-05:00,0.002624599771493169,0.009569066590195897,-0.00031855780500089815,0.020389442864726475,0.013925159297680489,0.016432265548158295,0.9593084911883741,0.04069150881162591
2011-01-13 00:00:00-05:00,0.0026905905072128764,0.009567338648633024,-0.00021559577744815515,0.020457349013386993,0.013793164116565813,0.016454029180967594,0.9661135286478875,0.03388647135211257
2011-01-14 00:00:00-05:00,0.002631926506818404,0.009555193492546788,-0.0005348491535916726,0.020257066561214822,0.013700226481159847,0.016566076395446133,0.9682024909743289,0.03179750902567123
2011-01-18 00:00:00-05:00,0.002663063666663786,0.009522508053786145,-0.0003764040971259851,0.02028338739907851,0.01354976429261306,0.01659198638881768,0.9778518535448084,0.022148146455191635
2011-01-19 00:00:00-05:00,0.0025289169499983066,0.0098348511438002,0.0002199587833424456,0.019710332203243634,0.008563520112084022,0.01588853736189572,0.9878473854710922,0.012152614528907759
2011-01-20 00:00:00-05:00,0.002452463694665104,0.009752662652810433,0.0001678626631342689,0.019666686657048297,0.009336575253838247,0.015990688838352637,0.9858670146088673,0.014132985391132703
2011-01-21 00:00:00-05:00,0.0022020001881984134,0.009907815250896639,0.00012231350095062403,0.019770551810777328,0.008081018758796153,0.015742597962233654,0.9547018582587969,0.04529814174120302
2011-01-24 00:00:00-05:00,0.0023107962062221704,0.009868186724130897,0.00019668683390113093,0.019864849932407155,0.006687670537945143,0.015326182774034391,0.9734592434631597,0.02654075653684027
2011-01-25 00:00:00-05:00,0.0024517401740653637,0.00986974631431078,0.00020162946641670627,0.019861523080042152,0.006907950019716465,0.015414943893713126,0.9730080503638604,0.026991949636139694
2011-01-26 00:00:00-05:00,0.002522392643767549,0.009816014331880236,0.00021496105591054717,0.019858623726473526,0.0070708123978907205,0.01546174455350272,0.9828847499179811,0.01711525008201885
2011-01-27 00:00:00-05:00,0.002649520364521534,0.009809249566104555,0.00023138847813204398,0.019853362011014463,0.007651972360719513,0.015678397479047968,0.9795246079454528,0.020475392054547202
2011-01-28 00:00:00-05:00,0.002513993121318866,0.009800363990132968,0.00019632385504119777,0.019846597770583264,0.008072958850857109,0.015794302191493373,0.9703564395631781,0.029643560436822
2011-01-31 00:00:00-05:00,0.0024526691054574984,0.009740867560794921,0.0001576128164464499,0.01983506154089311,0.009561757495259797,0.016258089152237167,0.9637527016890979,0.036247298310902114
2011-02-01 00:00:00-05:00,0.002562119971388241,0.009748342456693352,0.0002196096988079566,0.019882009670048436,0.008959076016595038,0.01607624940965505,0.9705220316334466,0.02947796836655341
2011-02-02 00:00:00-05:00,0.002828946460072117,0.009750259214369592,0.00021482649076994985,0.019926185235679718,0.00606535662790035,0.014885714075523481,0.9617847752817846,0.03821522471821533
2011-02-03 00:00:00-05:00,0.002695470887733549,0.009781181723538503,0.00021759551963296752,0.019921414290974375,0.006245091436243575,0.014960414452737854,0.9547975185736178,0.045202481426382245
2011-02-04 00:00:00-05:00,0.0028015815492222827,0.009719565995499316,0.00021719072942487654,0.019928420610363293,0.006012677073637933,0.014850098438796448,0.9752399653710973,0.02476003462890263
2011-02-07 00:00:00-05:00,0.002660667677875177,0.009538011342025848,0.0002101021931018719,0.019920989280764207,0.005674150504927567,0.014620837340414652,0.9856635766467352,0.014336423353264736
2011-02-08 00:00:00-05:00,0.002613108594037855,0.009519047635541948,0.00021214564909431238,0.01992064660770879,0.005643606053497623,0.014597790438657906,0.990578495524387,0.00942150447561299
2011-02-09 00:00:00-05:00,0.0026088283152866034,0.009516669551062975,0.00021304915764573592,0.019920759686082867,0.005651001279254219,0.014600972750154621,0.9923668835661569,0.0076331164338430575
2011-02-10 00:00:00-05:00,0.0025750582215217704,0.009526071054056543,0.0002163881796273772,0.019920038691501246,0.005700785962918204,0.014622629776223074,0.9926109970034098,0.00738900299659025
2011-02-11 00:00:00-05:00,0.00253891453263503,0.009476633503137204,0.00021651577212826917,0.019918067877798505,0.005655371835127906,0.014585804676626204,0.9916106076940647,0.008389392305935196
2011-02-14 00:00:00-05:00,0.0025035693820434925,0.009436807554427367,0.00021772173581060457,0.019915774505734042,0.00562656932847864,0.014559444497824118,0.9920803368768304,0.007919663123169548
2011-02-15 00:00:00-05:00,0.0024807609652007625,0.009434966069254149,0.0002173304516500725,0.019913967576974573,0.005645500473729835,0.01456389011035275,0.9935326212021978,0.006467378797802122
2011-02-16 00:00:00-05:00,0.0024329035032767147,0.009435256728068131,0.00021661973516878678,0.019911178005474393,0.0057008866588616714,0.01458306375465604,0.9936995508499664,0.006300449150033548
2011-02-17 00:00:00-05:00,0.0025438243071848276,0.009426613521175369,0.00021329951649987327,0.01991333311262947,0.005743109829283329,0.014615854730922098,0.9930020258734895,0.006997974126510387
2011-02-18 00:00:00-05:00,0.002663984078872,0.009381179142485251,0.00021252489194246174,0.0199156668783748,0.005714618124175026,0.01461041324845471,0.9934570205597528,0.006542979440247175
2011-02-22 00:00:00-05:00,0.0026472310730743702,0.009365960364687884,0.00021015709716646057,0.019914636995251093,0.005778829304767955,0.014638302447066293,0.9937455219573064,0.00625447804269367
2011-02-23 00:00:00-05:00,0.0027206121422597433,0.009341987904286317,-4.8161260895586936e-05,0.020035035336372523,0.011713857732597314,0.017560507380454626,0.1343222135807589,0.8656777864192412
2011-02-24 00:00:00-05:00,0.002655932951894458,0.009396884995928587,-6.888659505074989e-05,0.019950753047247062,0.011247588439908111,0.017379135527220386,0.22563545268422924,0.7743645473157708
2011-02-25 00:00:00-05:00,0.0025394665052216477,0.009419045442195042,-8.425204496511069e-05,0.01988356182193618,0.010693747470836531,0.017181198697346342,0.3197570486253824,0.6802429513746175
2011-02-28 00:00:00-05:00,0.002564382079943447,0.009466100677913156,3.278602139158027e-05,0.01986568623364936,0.010794402001639477,0.017179124087971273,0.3194866387225625,0.6805133612774374
2011-03-01 00:00:00-05:00,0.002534631371941446,0.009573566296704496,0.0001237270863217077,0.01984850326338444,0.009633726549178226,0.01689832018218722,0.5060188826340202,0.4939811173659797
2011-03-02 00:00:00-05:00,0.0024931539702762197,0.009657808434806778,0.00010984688546239516,0.019835071009277165,0.008869900473809885,0.01665256963849246,0.6222538223811811,0.37774617761881885
2011-03-03 00:00:00-05:00,0.0024262584429977528,0.00974612628561946,0.00015435823370569512,0.019866331865045092,0.007520676520314626,0.01618361138556006,0.8178092447603093,0.1821907552396907
2011-03-04 00:00:00-05:00,0.0025123299868834506,0.00981491585190489,0.00019075888240279836,0.019847803359797054,0.008030133253722246,0.016345092898282,0.7538155356860419,0.24618446431395807
2011-03-07 00:00:00-05:00,0.002533994182288806,0.00978582670770879,0.00015153644103340974,0.019795552250067898,0.008768014919432807,0.016562859077911996,0.6554569026906641,0.34454309730933586
2011-03-08 00:00:00-05:00,0.0024152583509251726,0.009793633559220128,0.00010807414187491416,0.01975151194935678,0.00910041421407153,0.01657226078587996,0.6135898664688811,0.3864101335311189
2011-03-09 00:00:00-05:00,0.0025169687413475854,0.009840520893580083,0.0001654519548484882,0.019764209741200307,0.008793986617035185,0.01655998830216448,0.6689136127808627,0.33108638721913736
2011-03-10 00:00:00-05:00,0.0023721813860781015,0.009872304345968046,0.0001490649169010517,0.019769558507397242,0.008344688353717516,0.016388331430274145,0.7288816102967508,0.27111838970324925
2011-03-11 00:00:00-05:00,0.0024231330438227224,0.00970786194000183,-1.3738622374477223e-05,0.01952053299084735,0.011794180029920881,0.016844868526766112,0.3162492012823997,0.6837507987176004
2011-03-14 00:00:00-04:00,0.0023738507096506614,0.009871918322504548,0.00010051659978561835,0.019602872426707732,0.01070874995437369,0.01693786880241665,0.515451808758395,0.48454819124160486
2011-03-15 00:00:00-04:00,0.002183532345290609,0.009953223316615665,0.0001466480809226626,0.019750229276654815,0.008274563583080957,0.01640872402133426,0.7770060404826459,0.2229939595173542
2011-03-16 00:00:00-04:00,0.0022857071918393856,0.009793882029179801,9.475728431538588e-05,0.01964818590696539,0.009041275691329096,0.016568972951310552,0.6661803675987917,0.33381963240120827
2011-03-17 00:00:00-04:00,0.002356170236621357,0.00966641103023571,-5.442765940033758e-05,0.01940866795009754,0.01139001899385872,0.016789350561026734,0.3942849328975371,0.6057150671024629
2011-03-18 00:00:00-04:00,0.002423483850346746,0.009592851755496451,3.089238658477853e-05,0.019295292970994176,0.012687048297040373,0.01666461494691387,0.2608371434142371,0.739162856585763
2011-03-21 00:00:00-04:00,0.0021617901955377906,0.010006716451804551,0.00013860327276018857,0.01967704053753024,0.008631284728695707,0.016399585734819602,0.7380648941850733,0.2619351058149267
2011-03-22 00:00:00-04:00,0.0022760456807554065,0.01004564168948075,0.00016935045658359455,0.019730192255052206,0.008176307646307385,0.01650694857561237,0.8112933594469055,0.18870664055309438
2011-03-23 00:00:00-04:00,0.00230118459031757,0.01004276010322548,0.00016759568201293098,0.01977986250052875,0.007656840347915331,0.016454829258621476,0.8740903055903253,0.12590969440967464
2011-03-24 00:00:00-04:00,0.002159427773691192,0.00994710267884884,0.00017489710221232067,0.019820200078689752,0.007127875294385774,0.01635379389847307,0.9310737043388589,0.06892629566114093
2011-03-25 00:00:00-04:00,0.0022099918454810017,0.009950951415149761,0.00017717944413700887,0.01985216714684543,0.006930532983384855,0.01636851506554686,0.9622193693101996,0.03778063068980042
2011-03-28 00:00:00-04:00,0.002231434624176013,0.009972843063078694,0.00017919683356857895,0.019868863968692085,0.006860813545966086,0.016351552272545235,0.9756369869358997,0.02436301306410031
2011-03-29 00:00:00-04:00,0.002294175556168334,0.009919796085580164,0.0001756904097879659,0.019870176787395766,0.006898098540005994,0.016508039085965782,0.9829365635023088,0.017063436497691084
2011-03-30 00:00:00-04:00,0.0022741740087186624,0.00988703866553005,0.00017515624728451574,0.019867835776580273,0.006909094089918223,0.016556823424048506,0.9817581236579624,0.01824187634203764
2011-03-31 00:00:00-04:00,0.002358976882637753,0.009616283317867225,0.0007747973506578994,0.020051275599701553,0.01694247447341735,0.021038531154223047,6.622872940711877e-05,0.9999337712705928
2011-04-01 00:00:00-04:00,0.002297171081920282,0.009633362958601345,0.000698063323229449,0.01996471568782558,0.016991514062350735,0.020979483609531977,0.028076992926459057,0.971923007073541
2011-04-04 00:00:00-04:00,0.0023261091076083175,0.009654408447525568,0.000687602660689978,0.01986787953229253,0.01724531509869831,0.021402965266626283,0.09029182716813754,0.9097081728318624
2011-04-05 00:00:00-04:00,0.002289495388936536,0.009710006333411007,0.000811795308944302,0.019845211333273032,0.017179901566210135,0.021294923637388746,0.12304649476497165,0.8769535052350285
2011-04-06 00:00:00-04:00,0.0022190163400848386,0.009713201826397915,0.0007926318800106696,0.01978958888807227,0.017529274001848522,0.022497676421185435,0.24574491713175012,0.7542550828682499
2011-04-07 00:00:00-04:00,0.0022140206577610376,0.009732639734953658,0.0007715692159095116,0.01980893943739996,0.018596028641244156,0.025073587608693024,0.4395689079867947,0.5604310920132054
2011-04-08 00:00:00-04:00,0.0021562906908814284,0.009751278219052343,0.000747412484840987,0.01983966434509311,0.01920013586101096,0.02690208024275,0.6036284169749834,0.39637158302501657
2011-04-11 00:00:00-04:00,0.00208807064635481,0.009808805501264912,0.0007442976833895851,0.019810189522068162,0.01881706804551545,0.02581307533700159,0.6600609333145373,0.3399390666854628
2011-04-12 00:00:00-04:00,0.002027253019902042,0.009820198627011955,0.0007606648831955603,0.019773710831705427,0.018348776809347732,0.024461372370034092,0.7546450694275295,0.24535493057247043
2011-04-13 00:00:00-04:00,0.001977885555330372,0.009883401979164338,0.0007945812888543123,0.019701215544740445,0.017097957422029464,0.021511533033480225,0.6880810149988376,0.3119189850011625
2011-04-14 00:00:00-04:00,0.0018988570169902216,0.00994578004107481,0.0006392391161037493,0.019547812477972777,0.015853531688721816,0.01743298381735967,0.49123016556619853,0.5087698344338014
2011-04-15 00:00:00-04:00,0.001826060623570678,0.00995788672137688,0.0007043356895157897,0.019681510924113372,0.015538388474062116,0.018003259659501298,0.6839931245919637,0.31600687540803635
2011-04-18 00:00:00-04:00,0.0017718949939056197,0.009942778515808161,0.0007545119092367881,0.019849540171564272,0.015420261652100772,0.018636470982575464,0.8268956890770678,0.1731043109229323
2011-04-19 00:00:00-04:00,0.0016795863254850047,0.010020356559365092,0.0007659473138703968,0.019934264742121222,0.014944112106908108,0.0174416529607948,0.7837418109564589,0.2162581890435411
2011-04-20 00:00:00-04:00,0.0018057063255321785,0.010076394662472727,0.0006486023165287216,0.019888768282861555,0.014723093726809326,0.01604039746317316,0.6685185458897835,0.33148145411021646
2011-04-21 00:00:00-04:00,0.001863795220787177,0.010109533989914168,0.000768752311371649,0.020004646199673737,0.014624640725481312,0.016347013865181764,0.6948882223904214,0.30511177760957875
2011-04-25 00:00:00-04:00,0.0018381411928152119,0.010098452434072766,0.0010174375277872253,0.02009194250547834,0.015013971986324079,0.01919613387718508,0.8398098642617908,0.16019013573820903
2011-04-26 00:00:00-04:00,0.0017411980543190497,0.010147664035860721,0.0008852176243220775,0.020171277301417816,0.014935393547974423,0.019058725272607973,0.8211811911136483,0.17881880888635168
2011-04-27 00:00:00-04:00,0.0017451869920598372,0.010126272168611524,0.0007311837193485476,0.020275998038564082,0.014883821518386024,0.020286779817251823,0.8989290825755661,0.10107091742443383
2011-04-28 00:00:00-04:00,0.0017003967514500663,0.010110317979278166,0.000864406376927069,0.020399838957513565,0.01482821117792268,0.020885054604510744,0.9379958504587996,0.06200414954120032
2011-04-29 00:00:00-04:00,0.0017229151728745957,0.010081621922619277,0.0007419301099397925,0.02050563189408345,0.014793404158510375,0.021223745263549372,0.9612317096907385,0.03876829030926145
2011-05-02 00:00:00-04:00,0.0017516527616356242,0.010009754292009294,0.0011671937389530563,0.02006023084690717,0.01478780883401614,0.021024386521862313,0.968588141976476,0.03141185802352392
2011-05-03 00:00:00-04:00,0.0016983150937942032,0.009998635850530778,0.0013367011043549405,0.020121296437095277,0.014665285989967247,0.021149538467803833,0.9725902647695048,0.027409735230495128
2011-05-04 00:00:00-04:00,0.0015453861020289568,0.010160836073714716,0.0016911782334406615,0.019912919268810923,0.015019106535997686,0.0212862362522082,0.8661827175046534,0.13381728249534663
2011-05-05 00:00:00-04:00,0.0014589429437961586,0.0102423657458351,0.0017968068066317165,0.01996384824446283,0.015759426612094334,0.021703313230189914,0.7459642265309516,0.2540357734690485
2011-05-06 00:00:00-04:00,0.0014466318722790358,0.01016634264005932,0.0012588567027013934,0.019124160712139588,0.015458487634994508,0.02126706968416128,0.8063120514614988,0.19368794853850133
2011-05-09 00:00:00-04:00,0.0014616030448782553,0.010169731335662787,0.0014200439838185327,0.019244690156349668,0.014860704913848978,0.02126628435636743,0.8743674492661079,0.1256325507338921
2011-05-10 00:00:00-04:00,0.0014985856981408387,0.010165204877828599,0.0012682905331140642,0.01929151282864589,0.01466311607168992,0.021591816946736352,0.9046907196173423,0.09530928038265774
2011-05-11 00:00:00-04:00,0.0015152189238424195,0.01014427409619724,0.0014326884131100437,0.019375428160526252,0.014372942839117532,0.02173776945583583,0.9405884486350611,0.059411551364939065
2011-05-12 00:00:00-04:00,0.0013939032178324948,0.010257014970392336,0.00170224173953495,0.019285947113978175,0.014972702524275386,0.022823462912696896,0.8480156746543995,0.15198432534560052
2011-05-13 00:00:00-04:00,0.0013483496081092945,0.010242171001615648,0.0015802837773851235,0.019372232463968617,0.014546528454324843,0.02297065083425352,0.9059631451768154,0.09403685482318458
2011-05-16 00:00:00-04:00,0.0012555833852732564,0.010298603433675637,0.001683565344554549,0.01951273867376093,0.014440923011456002,0.02299223131570045,0.8919524324712026,0.10804756752879745
2011-05-17 00:00:00-04:00,0.0012391020764001305,0.0102723326728644,0.0019617728324646633,0.01950581343788864,0.014040876941585467,0.02300605385345211,0.9373471608005229,0.06265283919947699
2011-05-18 00:00:00-04:00,0.0011470364044528355,0.010283626458236246,0.002456383904190302,0.018817266869375727,0.01418115840599039,0.022971113940914355,0.9172419038516954,0.0827580961483047
2011-05-19 00:00:00-04:00,0.0012588019069563639,0.010336954140388774,0.0022669109177153772,0.018836466737466015,0.014715260468035691,0.023635843132912396,0.8460633444684553,0.15393665553154467
2011-05-20 00:00:00-04:00,0.0012336436434717442,0.010316603831054798,0.0025308251216944458,0.018854187950167627,0.0143241084790701,0.024324698461033877,0.9075180360878226,0.0924819639121773
2011-05-23 00:00:00-04:00,0.0011586784134796878,0.010335348577543703,0.00245519909845987,0.018982526773281317,0.014090094926139931,0.024247540256454213,0.9215834593725988,0.07841654062740126
2011-05-24 00:00:00-04:00,0.001059299852663651,0.010406472733015095,0.002570609020446374,0.019142042642843794,0.014093704541236407,0.02446861693992412,0.8963140565770611,0.10368594342293884
2011-05-25 00:00:00-04:00,0.0010339650782927052,0.010317210412805375,0.0018232875245610268,0.018028086025679024,0.014323907720245761,0.022682101876945804,0.8781860723941707,0.12181392760582939
2011-05-26 00:00:00-04:00,0.0011241674179989698,0.010353117620372127,0.0020318204073342915,0.018033401155332807,0.014468611590166824,0.022886614642423937,0.8430542185458918,0.15694578145410815
2011-05-27 00:00:00-04:00,0.0010803184760043185,0.010334900333338429,0.0023736048703263775,0.017918398543148598,0.014012275132212947,0.02292822913124556,0.9001439581437053,0.09985604185629463
2011-05-31 00:00:00-04:00,0.0011421387488845453,0.010269958238660233,0.0019171740770148533,0.01747272299353082,0.014283759797231434,0.022647470354200012,0.9002913179541985,0.0997086820458016
2011-06-01 00:00:00-04:00,0.001189093101876414,0.010272511780230325,0.0021025852405637487,0.01755407934598426,0.014022693745461275,0.022793563784727022,0.9168002893957735,0.0831997106042264
2011-06-02 00:00:00-04:00,0.0010793298260288217,0.010361030716812299,0.0024010040883636237,0.017030907776527333,0.015319607152705954,0.02281088928145994,0.7559461084086945,0.2440538915913055
2011-06-03 00:00:00-04:00,0.0010110362101524515,0.010376510195885136,0.0027235985673941367,0.01699746956128698,0.014660285658355596,0.02328956763807976,0.8318244638800487,0.1681755361199512
2011-06-06 00:00:00-04:00,0.0009562265014864868,0.010397479582813932,0.002344866092683639,0.01682455192473968,0.015407808429112334,0.024476140801946954,0.7868622553359855,0.21313774466401442
2011-06-07 00:00:00-04:00,0.0008638519068880705,0.010429956429875807,0.002506978738755419,0.01700695754436008,0.014649895988757345,0.02438015215247521,0.8433913345778326,0.15660866542216748
2011-06-08 00:00:00-04:00,0.001025368725148061,0.010428326564307385,0.002098543347612736,0.016784072052329367,0.016246745336697645,0.02484959767838677,0.6885840197201166,0.31141598027988343
2011-06-09 00:00:00-04:00,0.000997440537858213,0.01042054817894764,0.0017119601651305466,0.01664214704782651,0.017419391550643672,0.026419057851291398,0.6164635307161707,0.38353646928382934
2011-06-10 00:00:00-04:00,0.000998565241795786,0.01045741422946918,0.0019910576145155587,0.01678957847878046,0.01635353192508751,0.0269828413217909,0.714206520859955,0.285793479140045
2011-06-13 00:00:00-04:00,0.0009010561161917737,0.010488634165951643,0.0017771538086931546,0.01685224794452349,0.017466563079235775,0.03251716432021461,0.7091322878803372,0.29086771211966267
2011-06-14 00:00:00-04:00,0.0007890723521587268,0.010518568954597674,0.0018490583316487657,0.01707961499645231,0.016779522802402615,0.03512491358530716,0.8240873834144344,0.17591261658556556
2011-06-15 00:00:00-04:00,0.0009624054162731191,0.01050949005728283,0.0017366850799799898,0.016884960481040722,0.01752766024606591,0.031044035826684753,0.662334879194208,0.3376651208057919
2011-06-16 00:00:00-04:00,0.00221389371713809,0.009474654118684063,0.0002578122563229686,0.015172875672845,0.015103229489991942,0.007472219662579286,0.015737470037927644,0.9842625299620723
2011-06-17 00:00:00-04:00,0.002212060498672474,0.009477813835414453,0.00025440162556390197,0.015174366507840037,0.015089790223088323,0.007526711236811171,0.036544154812836425,0.9634558451871637
2011-06-20 00:00:00-04:00,0.002201720957624879,0.009479802975341773,0.00045524695567790153,0.015091350863352386,0.015360210696799992,0.007874009237126733,0.0671102859553125,0.9328897140446875
2011-06-21 00:00:00-04:00,0.002196785752686636,0.00948487669021126,0.0005602097995431581,0.015102461512915454,0.015601610464812487,0.008272869659367894,0.11101944770676318,0.8889805522932368
2011-06-22 00:00:00-04:00,0.00219104968409337,0.009478068177387515,0.0009868104057606962,0.01499266339181261,0.01559908248003491,0.0077855356181856655,0.027648651475674316,0.9723513485243258
2011-06-23 00:00:00-04:00,0.0021954826230876482,0.009483901107441519,0.0010019765710651215,0.014991154121895186,0.015523785394903096,0.007844400806359546,0.05337004195467071,0.9466299580453293
2011-06-24 00:00:00-04:00,0.0021899176482972306,0.009486859328094828,0.0009508532812371979,0.015017582929584628,0.01553829089511989,0.00784218402082286,0.06243223242239206,0.937567767577608
2011-06-27 00:00:00-04:00,0.0021675010563439244,0.009485242456998192,0.0011994696100223036,0.014764388361800166,0.016281667284619498,0.00872683141745483,0.11002932175220553,0.8899706782477944
2011-06-28 00:00:00-04:00,0.0021596217053415426,0.009488253000679,0.0012548288520002593,0.014753110362339606,0.01657626310695425,0.009333973606973188,0.16750812555942207,0.8324918744405779
2011-06-29 00:00:00-04:00,0.002177238573996102,0.00949487803040876,0.0012883361116960651,0.014787611176083949,0.016445413058077046,0.00889768276121488,0.13657112779354832,0.8634288722064517
2011-06-30 00:00:00-04:00,0.0021885530550900608,0.009504380862029895,0.0013856031253959864,0.01479893035084448,0.016646285049620797,0.009552432921450551,0.20454656183602704,0.795453438163973
2011-07-01 00:00:00-04:00,0.002196686389591184,0.009514263482476687,0.0015122791845184266,0.01485887818369833,0.01647962827048041,0.008936911857786452,0.14631427328909805,0.8536857267109019
2011-07-05 00:00:00-04:00,0.002242736211546768,0.009499311312091141,0.0012786844516793003,0.014439307615769741,0.016805330294511728,0.009226505614570443,0.17593798690611856,0.8240620130938815
2011-07-06 00:00:00-04:00,0.0022526763003892195,0.00949926271476628,0.0011068616156182658,0.014391272252945531,0.017117996470686927,0.009985029287825686,0.24364219522700964,0.7563578047729903
2011-07-07 00:00:00-04:00,0.0022975481434180565,0.009507568668197169,0.0010994854864049609,0.014441065123183142,0.017377024718618565,0.010617402973601399,0.3115417388442376,0.6884582611557625
2011-07-08 00:00:00-04:00,0.002357403286370312,0.00950820771306192,0.0011973648588049083,0.01444868626075474,0.01821708378874108,0.011990250172793156,0.4133998692386203,0.5866001307613797
2011-07-11 00:00:00-04:00,0.0022624019676053737,0.00951248981165472,0.0010232797054880978,0.01430776007016976,0.017678542773859898,0.010484216940021237,0.27531730674801985,0.7246826932519801
2011-07-12 00:00:00-04:00,0.002196806946925066,0.009489740410370545,0.0010417683441525146,0.014314188670417676,0.016521215013392213,0.008280272192256735,0.07737825815423581,0.9226217418457643
2011-07-13 00:00:00-04:00,0.0021912756047074763,0.009500562158579333,0.00099842060925025,0.014337143841917081,0.016523750389399065,0.008470614421718651,0.10703287292800477,0.8929671270719952
2011-07-14 00:00:00-04:00,0.0021648849941460504,0.009500914916603813,0.0012695562161273192,0.013990627882880486,0.01738258148540321,0.009051367975186476,0.152835026229863,0.847164973770137
2011-07-15 00:00:00-04:00,0.0021634767680533875,0.009488373509584811,0.0011955906115594399,0.014050420942683281,0.0168150641942689,0.008150079433580752,0.07502898503327278,0.9249710149667273
2011-07-18 00:00:00-04:00,0.0022193945085196808,0.009502289981711144,0.0009914089049279473,0.013658068309363414,0.018073474440941994,0.009325830428831365,0.08957174619778828,0.9104282538022117
2011-07-19 00:00:00-04:00,0.0022000517558113386,0.009493104075546469,0.000917600336491252,0.013691302544871388,0.01779296063169541,0.0087925529488215,0.0764036808694914,0.9235963191305087
2011-07-20 00:00:00-04:00,0.0021983158765178034,0.009503281378147552,0.0008305439432412609,0.013628519276836353,0.01801597099821408,0.009406021834359244,0.12115744778579496,0.878842552214205
2011-07-21 00:00:00-04:00,0.002198282460472099,0.009473102686125945,0.000656931350019641,0.013524641639524338,0.020361512606191925,0.01235222177686547,0.20664338553736777,0.7933566144626323
2011-07-22 00:00:00-04:00,0.002183253395476969,0.009484949475011653,0.0006564856915765278,0.013523650615388962,0.020202706099016646,0.012451604406080823,0.277291582557984,0.722708417442016
2011-07-25 00:00:00-04:00,0.0021516394514020706,0.009494379674235913,0.0005490754445596216,0.013523843083178418,0.019144936342902867,0.010836400860679938,0.20531712387711923,0.7946828761228808
2011-07-26 00:00:00-04:00,0.002125597663597047,0.009506951670212519,0.0005199983741248054,0.013551608071586705,0.01890025592838443,0.010863467853957438,0.24739713535588115,0.7526028646441189
2011-07-27 00:00:00-04:00,0.0021861824555756406,0.009480089444110319,0.00035096295458775294,0.013645806819702773,0.01723230721197061,0.008286487964783398,0.0507629021120441,0.9492370978879558
2011-07-28 00:00:00-04:00,0.002208713536011682,0.009467345468391508,0.00013353480157502374,0.01373246250158949,0.01678197865302138,0.007815093474446519,0.01877816321402969,0.9812218367859704
2011-07-29 00:00:00-04:00,0.0022049131210466603,0.009468800412117132,-5.7714902880931013e-05,0.013595053828790562,0.016888182458633022,0.008018711661557053,0.02911884489500363,0.9708811551049963
2011-08-01 00:00:00-04:00,0.0021953633146604376,0.009461865985171642,3.513244334510083e-05,0.013529337235884916,0.01738099746344319,0.008514320624791856,0.04594418529213356,0.9540558147078664
2011-08-02 00:00:00-04:00,0.0021878680487639477,0.009461234000526918,-6.787530232109727e-05,0.013496885737957143,0.017451678364144747,0.008531152928211947,0.06372998349024278,0.9362700165097572
2011-08-03 00:00:00-04:00,-0.007532665770041492,0.011054209888722114,0.0012787573989940736,0.01216229640889002,0.08587425534677129,0.005705743804104501,0.5699064506054249,0.4300935493945751
2011-08-04 00:00:00-04:00,-0.0033005954723327713,0.011878739925982441,0.0011197031317233181,0.012178970129617436,0.08103189304457031,0.0063504350338611446,0.2479560354964516,0.7520439645035484
2011-08-05 00:00:00-04:00,-0.014032354747401665,0.012767110658161268,0.0011615733884040894,0.012768644856759312,0.02851212236945621,0.0044568142492355965,0.9561961652369542,0.0438038347630459
2011-08-08 00:00:00-04:00,-0.010064199243923082,0.012761506174556769,0.0012539190885175236,0.012762712977897791,0.02654235779096205,0.0047344337493555495,0.8868096123781942,0.11319038762180574
2011-08-09 00:00:00-04:00,-0.03793290472821795,0.01308836470711105,0.000998592465383138,0.013089602561180228,0.058095412222941664,0.003997048901207425,0.9981871661045104,0.001812833895489599
2011-08-10 00:00:00-04:00,-0.04161450549587471,0.01361066539307704,0.0013060971671440746,0.013611408362875162,1.0,0.010067296171178197,1.984661103478355e-12,0.9999999999980153
2011-08-11 00:00:00-04:00,-0.042737702740935246,0.014047339529130412,0.0013352665819220558,0.014048367257788644,0.9999994636554488,0.01442495430017407,0.968604802840626,0.03139519715937406
2011-08-12 00:00:00-04:00,-0.04308392475378927,0.014133023797012331,0.0014373866521823666,0.014134040952020812,0.9999994636554409,0.014401065747673457,1.613254468252905e-08,0.9999999838674554
2011-08-15 00:00:00-04:00,-0.042883371266666304,0.014088181256776366,0.0013691958095683725,0.014088796033046826,0.9999994636554409,0.014449636588448883,9.169065558552929e-05,0.9999083093444145
2011-08-16 00:00:00-04:00,-0.04314078181035072,0.01413660388965114,0.0014833841273613894,0.014137625871003598,0.9999994636554409,0.014397557043927485,1.346330855536899e-06,0.9999986536691445
2011-08-17 00:00:00-04:00,-0.043048546171919826,0.014097666701160172,0.0015051146833861715,0.014098299341416572,0.9999994636554409,0.01433077363887429,0.008725843293149656,0.9912741567068503
2011-08-18 00:00:00-04:00,-0.043060389154938886,0.014095730623719964,0.0015232767983146748,0.01409669427457783,0.9999994636554409,0.014336984586451553,0.00010123047132872154,0.9998987695286713
2011-08-19 00:00:00-04:00,-0.04459937625464643,0.014687895629934325,0.0015484838953971254,0.014688660888890351,0.9999994636554409,0.018460009805922155,0.9950935329001145,0.004906467099885436
2011-08-22 00:00:00-04:00,-0.04469647197943933,0.014732519767077347,0.001510068253479863,0.014733594599990038,0.9999994636554409,0.018470116708929635,9.944617878098743e-05,0.999900553821219
2011-08-23 00:00:00-04:00,-0.04456204293710728,0.014705873310672891,0.001453891451007725,0.014706523884423204,0.9999994636554409,0.018496028308793048,0.00015953331652200834,0.999840466683478
2011-08-24 00:00:00-04:00,-0.04507727598492291,0.014839029680338883,0.0015726466166869676,0.014839822371814913,0.9999994636554409,0.018343133832942886,2.1568198443860087e-07,0.9999997843180155
2011-08-25 00:00:00-04:00,-0.04476155946483646,0.014756103421438195,0.001502695878256818,0.014756442316075905,0.9999994636554409,0.0184328652799384,2.0182578955381172e-05,0.9999798174210446
2011-08-26 00:00:00-04:00,-0.044621844595067614,0.014692041254703475,0.001554766236791294,0.014692702946917307,0.9999994636554409,0.0183831726847068,0.0020788355710701935,0.9979211644289298
2011-08-29 00:00:00-04:00,-0.044782136965762026,0.014729279589870487,0.0016053919306739189,0.014730036078832944,0.9999994636554409,0.018345572791621575,4.167502505902206e-06,0.999995832497494
2011-08-30 00:00:00-04:00,-0.04507201297810046,0.01481500387948908,0.0016369121640839638,0.01481580029123219,0.9999994636554409,0.01824434022805519,1.726738797419783e-08,0.999999982732612
2011-08-31 00:00:00-04:00,-0.045098159645968985,0.014821098207788598,0.0016418010929743574,0.014821897829280393,0.9999994636554409,0.01823694592406866,1.1200613881149754e-05,0.9999887993861188
2011-09-01 00:00:00-04:00,-0.04495423545095548,0.014791727272899614,0.0015854569967094449,0.01479209548968923,0.9999994636554409,0.018258977843100276,0.00013594652893612265,0.9998640534710639
2011-09-02 00:00:00-04:00,-0.04489691975065993,0.014767394375273486,0.0016002256291239275,0.014767757692416159,0.9999994636554409,0.01820722791006893,0.013916233703049365,0.9860837662969507
2011-09-06 00:00:00-04:00,-0.04487974727678271,0.014803632113139549,0.0014715997750344445,0.014804406081949505,0.9999994636554409,0.018196368039701094,0.011238373719927378,0.9887616262800726
2011-09-07 00:00:00-04:00,-0.044856941107854625,0.014806788282642827,0.001437207806092991,0.014807560949720524,0.9999994636554409,0.018190247295474506,0.0005406284595927837,0.9994593715404072
2011-09-08 00:00:00-04:00,-0.044938170898870616,0.014828972458206384,0.0014519916027088944,0.014829756583774218,0.9999994636554409,0.018165837200542437,1.0218091302861675e-06,0.9999989781908697
2011-09-09 00:00:00-04:00,-0.04482580405479222,0.014810941137060636,0.0013920698528170367,0.01481129751229739,0.9999994636554409,0.018178873273932757,0.00030738196662513916,0.999692618033375
2011-09-12 00:00:00-04:00,-0.04496636829244072,0.014883201158502396,0.0013156785933527207,0.014883988512879058,0.9999994636554409,0.018190894943830478,0.024333844714336014,0.975666155285664
2011-09-13 00:00:00-04:00,-0.044945516932783314,0.014881308009516451,0.0012978407008374965,0.01488167439321064,0.9999994636554409,0.018194517650217727,0.0001790453151884744,0.9998209546848116
2011-09-14 00:00:00-04:00,-0.04515176861462277,0.014932573284542647,0.0013513780100832674,0.014933386438270614,0.9999994636554409,0.01813912727041334,2.178417976179385e-06,0.9999978215820238
2011-09-15 00:00:00-04:00,-0.04534651086213781,0.014970756174684862,0.0014315256011016605,0.014971595468167022,0.9999994636554409,0.01810413932238949,4.848421722169055e-06,0.9999951515782778
2011-09-16 00:00:00-04:00,-0.04549471613747709,0.015006515232260993,0.001471868269825282,0.015007375984450321,0.9999994636554409,0.018066400754370878,3.790632583368441e-06,0.9999962093674166
2011-09-19 00:00:00-04:00,-0.04565689937090582,0.015030919221297017,0.0015617279690683245,0.015031802853182567,0.9999994636554409,0.01804904524286464,6.8048888302492955e-06,0.9999931951111698
2011-09-20 00:00:00-04:00,-0.04567427912013776,0.015050277458618196,0.001518939265965294,0.01505116406565507,0.9999994636554409,0.01802591217622469,0.002107638923465167,0.9978923610765349
2011-09-21 00:00:00-04:00,-0.0456684923080066,0.015040127248985801,0.0015439873921625337,0.015040585932928634,0.9999994636554409,0.018039543909645486,0.00031371314170788086,0.9996862868582921
2011-09-22 00:00:00-04:00,-0.046277726702781984,0.013386405506880361,0.0014370380530003449,0.015339994937695235,0.9999994636554409,0.021342723859095393,0.8964003276635538,0.10359967233644621
2011-09-23 00:00:00-04:00,-0.04695078678805596,0.011319614543048157,0.00143663540902852,0.015624174425969662,0.799013498384583,0.020600679507778868,0.9727447467498735,0.027255253250126447
2011-09-26 00:00:00-04:00,-0.04697706238727747,0.011542394549970561,0.0013408432052161618,0.015663877020000785,0.8307898070313523,0.020730227141152583,0.02568007449490027,0.9743199255050997
2011-09-27 00:00:00-04:00,-0.04824056661705835,0.010008136320398285,0.001562422572831568,0.01601055805903674,0.8365771677984319,0.02018329881762539,5.022362790271582e-22,1.0
2011-09-28 00:00:00-04:00,0.00064239577327483,0.005370538954378224,0.00030725134714904554,0.016341042451453666,0.15567491869076833,0.04031962693197254,6.767315931784633e-07,0.9999993232684069
2011-09-29 00:00:00-04:00,0.0005607197847798914,0.011064146193636748,-0.0017527620677545042,0.03055890974231849,0.009908607534011099,0.03372733289000905,0.0002582017287904222,0.9997417982712096
2011-09-30 00:00:00-04:00,0.0006220462039091683,0.011054571584316419,-0.0014549489946914878,0.03026969451001376,0.01003154624142133,0.03431438699893635,0.060387759599727,0.9396122404002729
2011-10-03 00:00:00-04:00,0.0005051999695480461,0.010955989328723903,-0.0019220410511174893,0.030074395828981127,0.009794781828918193,0.032481069014506495,0.030410784958841666,0.9695892150411582
2011-10-04 00:00:00-04:00,0.00045961779878451716,0.010959996191219758,-0.0024805534288636455,0.029969912855779452,0.009750753900766428,0.0311736046334,0.00836020795798319,0.9916397920420168
2011-10-05 00:00:00-04:00,0.0004750726957217514,0.010985653059383435,-0.0018265599476092029,0.02999516068290082,0.009742382849336897,0.03041403778182869,0.006364589126240525,0.9936354108737594
2011-10-06 00:00:00-04:00,0.00042909510298628405,0.010997835915770277,-0.0011735031806947703,0.030025668452937724,0.009728547751381508,0.029712314082264945,0.005054756110087348,0.9949452438899127
2011-10-07 00:00:00-04:00,0.0004494166848968775,0.011024373901281205,-0.0009070084014576839,0.029787359430931606,0.009799331525255469,0.030097632858364785,0.053938631585590216,0.9460613684144098
2011-10-10 00:00:00-04:00,0.00042172200341850433,0.011041203518764866,-0.0009711369121172112,0.029564657737611185,0.01001062758178172,0.032675807317914356,0.19808376339430506,0.8019162366056949
2011-10-11 00:00:00-04:00,0.0003604670751718236,0.011051581472631893,-0.00012253844676818763,0.02974496758199547,0.009741756728470602,0.027845899183486202,0.0023774008460342336,0.9976225991539658
2011-10-12 00:00:00-04:00,0.0003571297119929919,0.011078967139148186,-0.0001798616981279522,0.029469610235006986,0.00986531581939398,0.028752652441057493,0.07589694447509811,0.9241030555249019
2011-10-13 00:00:00-04:00,0.0003349594901339973,0.011105187201762304,0.00017832647151633978,0.02931863853533001,0.00989951426783839,0.028054198228649473,0.06765025593730094,0.9323497440626991
2011-10-14 00:00:00-04:00,0.00033908816887902934,0.011131443882324963,0.00011821843032676225,0.029136208469636816,0.010229615474496221,0.03087508847576274,0.2279183432797221,0.772081656720278
2011-10-17 00:00:00-04:00,0.0004112953637806334,0.01111406133187595,0.0005979273322563243,0.028983142450805795,0.010039972329962019,0.02713106329762166,0.06870492287456016,0.9312950771254398
2011-10-18 00:00:00-04:00,0.0002877081468400468,0.011025162153204074,0.00021210775650238302,0.02887692586825387,0.009870529327020042,0.025882144408051314,0.032449604080505914,0.9675503959194941
2011-10-19 00:00:00-04:00,0.000339543058481782,0.011022402098641007,0.0008522660822100033,0.029023771168161565,0.009832871511730547,0.024877222452711425,0.001276661722792931,0.998723338277207
2011-10-20 00:00:00-04:00,0.0003590902991108388,0.011050029025371473,0.00044046370262916035,0.02893732761001906,0.00986525701310221,0.024582313982539204,0.009567313275417435,0.9904326867245826
2011-10-21 00:00:00-04:00,0.0002982034923242873,0.01104888211815463,0.0008203638344054265,0.028847833006397705,0.009869647008967607,0.024245651864262432,0.013776465911281958,0.986223534088718
2011-10-24 00:00:00-04:00,0.00029683976542069993,0.011079163370582954,0.0014276781322019618,0.0289935351435525,0.009867581348666509,0.02366348419708854,0.0008345733016308248,0.9991654266983692
2011-10-25 00:00:00-04:00,0.00033894183939412717,0.01109622164531349,0.0015301509408436134,0.028772177431006688,0.009943082951924554,0.024059899772465514,0.049178325033440363,0.9508216749665597
2011-10-26 00:00:00-04:00,0.0003498966720390864,0.0111290307569417,0.001164833090008469,0.028683115112548528,0.009943832038445378,0.02341486377222035,0.033647520212891344,0.9663524797871087
2011-10-27 00:00:00-04:00,0.000346056616886829,0.011160190564348678,0.001580042899747692,0.028651579667377372,0.009933565019246353,0.022672402645678713,0.009992793133426232,0.9900072068665737
2011-10-28 00:00:00-04:00,0.00034214459851351485,0.01119147356555698,0.002314651337746408,0.029022884602028516,0.009957502392265158,0.02224843229134057,3.4446261605233903e-05,0.9999655537383948
2011-10-31 00:00:00-04:00,0.000275403428390573,0.011182623581832883,0.002353441281844394,0.028809374058494232,0.010036334135259513,0.02271915446888834,0.052303123416082085,0.9476968765839179
2011-11-01 00:00:00-04:00,0.0002585580750086107,0.011215214528629286,0.0018281615220800671,0.028901731020242485,0.010024787515426193,0.021673316355309738,0.004793425894006245,0.9952065741059937
2011-11-02 00:00:00-04:00,0.00017155660746667297,0.011184445923434096,0.0014970008313560522,0.028817079937681702,0.010023387717592864,0.02151851732862742,0.015465988862167582,0.9845340111378325
2011-11-03 00:00:00-04:00,0.0001356875140424417,0.011206021016064443,0.0018304586153328173,0.028743750543509847,0.01003839079098798,0.021162031942810314,0.011604807763112542,0.9883951922368874
2011-11-04 00:00:00-04:00,0.0001394942347668465,0.011239430964968811,0.002122828197356199,0.028641987064164178,0.010073959053692702,0.02090573393515387,0.014601966393881668,0.9853980336061183
2011-11-07 00:00:00-05:00,0.00020434588066812456,0.011242760387132367,0.00205729221266165,0.028452426516291127,0.010188842885963612,0.021648501606548548,0.08700456294772217,0.9129954370522778
2011-11-08 00:00:00-05:00,0.0002353204945191116,0.011268892723260286,0.00206817197126786,0.02832155308424436,0.010430140263072792,0.023533269915431646,0.2331960918380038,0.7668039081619963
2011-11-09 00:00:00-05:00,0.00026252084689952406,0.011301253789623118,0.0021385590243505693,0.028246435665557807,0.010690852751926164,0.025197631300090888,0.35689997131558054,0.6431000286844194
2011-11-10 00:00:00-05:00,0.0003196673897205505,0.011259531893111182,0.001584400040829884,0.02836767103216295,0.010236481647337994,0.019723804929663035,0.0016789071593776587,0.9983210928406223
2011-11-11 00:00:00-05:00,0.00031804387514683364,0.01129162067803358,0.0016806282477689236,0.028187254192666215,0.010397947710495058,0.019988954061410675,0.040030361672242235,0.9599696383277578
2011-11-14 00:00:00-05:00,0.00041871668369063483,0.011250583445176187,0.0019375268400536791,0.028090808155919873,0.01037580875311789,0.019617563694526424,0.030700794631182967,0.9692992053688171
2011-11-15 00:00:00-05:00,0.0003800897884401686,0.01127340582342468,0.0017997273569072022,0.02794566122701401,0.010581283857940809,0.020191452722861197,0.09014425912260136,0.9098557408773986
2011-11-16 00:00:00-05:00,0.00027457255276017173,0.011207152951336117,0.0017845605636479798,0.027851002342924442,0.010729439086207408,0.0220904332674774,0.2445959628524482,0.7554040371475518
2011-11-17 00:00:00-05:00,0.00027662296596698004,0.011246894876863846,0.0014302720577448664,0.027774274492934018,0.010628288290382428,0.019330572072145804,0.055222128934878795,0.9447778710651211
2011-11-18 00:00:00-05:00,0.0002845567245498335,0.01126813589301793,0.0010778874224664412,0.027740767227064003,0.010879154612543185,0.01869666061908288,0.018879204530451457,0.9811207954695484
2011-11-21 00:00:00-05:00,0.0003949706249728968,0.011213166271138495,0.0011996926645692154,0.027602718165231414,0.010824116182863757,0.018967673632180444,0.060101268637005184,0.9398987313629948
2011-11-22 00:00:00-05:00,0.0002531649851971853,0.011086130025608707,0.0009233692326789485,0.027546955764927987,0.01059372538352323,0.018498899131088174,0.040160131224211484,0.9598398687757884
2011-11-23 00:00:00-05:00,0.0002546288847065733,0.011125196591280478,0.0008569127970926763,0.027416730488695563,0.01074920592358524,0.019255267814523126,0.11814048322677675,0.8818595167732233
2011-11-25 00:00:00-05:00,0.00024131117523768064,0.011159816830428401,0.0006024387260241905,0.027334892687510996,0.010802879761388478,0.018540113843901338,0.07574751999551901,0.9242524800044809
2011-11-28 00:00:00-05:00,0.00019286072576813487,0.011202518238238085,0.0006526730687836428,0.027245102107424878,0.011178238648981206,0.020150623471712162,0.2155759873267556,0.7844240126732445
2011-11-29 00:00:00-05:00,9.81990189124705e-05,0.011049725166238023,0.0009884698533787625,0.02731687562442619,0.010725416240934444,0.01736556890870402,0.0033445442273609023,0.9966554557726391
2011-11-30 00:00:00-05:00,7.453102764366674e-05,0.0110819047213756,0.0010564304973897378,0.027171041308630767,0.010822815267589606,0.017618260848339073,0.0421995721462208,0.9578004278537793
2011-12-01 00:00:00-05:00,1.662314852894564e-05,0.011100385308494151,0.0016909016421802097,0.027640368279513338,0.010803841785610684,0.017015119953619897,3.856489681309024e-06,0.9999961435103186
2011-12-02 00:00:00-05:00,8.424741744443516e-05,0.011103989402421926,0.0015156903430396992,0.027527562119425246,0.010859804062244235,0.017074142507608116,0.022747074200889197,0.9772529257991108
2011-12-05 00:00:00-05:00,4.343360106532258e-05,0.011131661783991664,0.0012891389114929454,0.02746016883729974,0.010905031654506962,0.016953264938558976,0.028002797178698993,0.9719972028213011
2011-12-06 00:00:00-05:00,8.937026735356285e-05,0.01115059936109602,0.0013189075569162367,0.027324166275198798,0.01104263147852868,0.017578565836594794,0.10056894894034954,0.8994310510596505
2011-12-07 00:00:00-05:00,6.607511156909967e-05,0.011178620555470344,0.0013576531222016122,0.027239296824470346,0.011306457526880137,0.019121902358352132,0.25052383838590264,0.7494761616140975
2011-12-08 00:00:00-05:00,-3.863303049131432e-05,0.011172827876565662,0.0013224857354025255,0.02722744351533305,0.011578608547400178,0.02109032769732613,0.4289788939927278,0.5710211060072721
2011-12-09 00:00:00-05:00,-3.652347409751708e-06,0.011237701418798925,0.0010413643339338492,0.027093356466833328,0.011364827485527675,0.018254731297865208,0.19311510541595012,0.8068848945840499
2011-12-12 00:00:00-05:00,-5.57706328675211e-05,0.01124955521100389,0.0011714412438253497,0.02701760736059188,0.01143007508130823,0.01836254351582198,0.2135227138377489,0.7864772861622511
2011-12-13 00:00:00-05:00,-0.00014348680485910456,0.011271138936949103,0.001027209785605312,0.026956030590953774,0.01148723285996355,0.018363378836808004,0.22438146601875072,0.7756185339812492
2011-12-14 00:00:00-05:00,-0.00013301591105179566,0.011307763243870183,0.0009405675019584854,0.026916612226854462,0.011603076681921497,0.019036411194742628,0.2951254159519442,0.7048745840480558
2011-12-15 00:00:00-05:00,-0.00024397221245504944,0.011355048172179397,0.000899782484801343,0.026914108252488952,0.011746157753541103,0.020038961094028845,0.38877883102517785,0.6112211689748221
2011-12-16 00:00:00-05:00,-0.00040083993959737506,0.011413664803856086,0.001128381377217775,0.027095113233978323,0.012073289374092711,0.02363681131767255,0.6846585032155114,0.31534149678448853
2011-12-19 00:00:00-05:00,-0.00041075341843331364,0.011460423413356973,0.001245581360901632,0.02718374159310061,0.012197872429416416,0.02522609111778871,0.8077119051841737,0.19228809481582632
2011-12-20 00:00:00-05:00,-0.0005052913958860084,0.011557387980801666,0.0011355146394430378,0.027096218426135073,0.012277892525834838,0.02423034116332912,0.7174841917383701,0.28251580826162986
2011-12-21 00:00:00-05:00,-0.0003575300424324243,0.011614128608757705,0.0010569324857988714,0.026876343646847798,0.012276377791520632,0.021995801901679934,0.5389184656664214,0.46108153433357857
2011-12-22 00:00:00-05:00,-0.0003069173797191441,0.011672161097516374,0.001114273296026419,0.02679913883192033,0.01232959359516392,0.021613842705625403,0.5133044082121367,0.48669559178786326
2011-12-23 00:00:00-05:00,-0.0004126612515887008,0.011729232449479916,0.0012490309058101787,0.0270439630579612,0.012395444005471877,0.02465483401222849,0.7581572515040893,0.24184274849591067
2011-12-27 00:00:00-05:00,-0.00037314039437478516,0.011793661775845085,0.0012932398796350144,0.027077535681878682,0.012420627184782297,0.025192771105059332,0.8002388097905045,0.1997611902094955
2011-12-28 00:00:00-05:00,-0.00031770641703657407,0.011830044514718781,0.0013249408190821727,0.027193579285078328,0.012378434645106167,0.026387043605916153,0.8988847147461505,0.10111528525384954
2011-12-29 00:00:00-05:00,-0.00042440290711747504,0.011888225974915135,0.0013362515989997414,0.027241007183280815,0.012425080999757119,0.026807706587412036,0.9228695640441102,0.07713043595588964
2011-12-30 00:00:00-05:00,-0.0003827416431148923,0.011937436710066867,0.0013443862922251596,0.02724954574370083,0.01246275261924955,0.026923203268461836,0.9269088978322746,0.07309110216772542
2012-01-03 00:00:00-05:00,-0.00032220657893706415,0.011892651940098963,0.0013431455254575549,0.02728431223815584,0.012373427005312748,0.02722916941871667,0.95967889805125,0.040321101948749986
2012-01-04 00:00:00-05:00,-0.00023438476387861973,0.011994513575634717,0.0013408379960651925,0.027261907748040468,0.012471046587767109,0.027080590760001515,0.9317144427409342,0.06828555725906581
2012-01-05 00:00:00-05:00,-0.0001914674895452861,0.0120008401475106,0.0013337445908472541,0.027290686561965264,0.012374301393650616,0.02726295803614292,0.9642317028037178,0.035768297196282085
2012-01-06 00:00:00-05:00,-0.0001472815543636834,0.011957431067292542,0.0013278534256452815,0.027298097517950426,0.012314739987859067,0.027330303848711116,0.9745930356203504,0.025406964379649653
2012-01-09 00:00:00-05:00,-0.00015075506674361265,0.01195768760760838,0.001329104163818106,0.027307619560939855,0.012287706259360142,0.027383742342792897,0.9832327057669368,0.016767294233063206
2012-01-10 00:00:00-05:00,-0.00014065274137775948,0.011952628922703245,0.0013295126280002587,0.027310992190950636,0.012297283964131652,0.0274134578299537,0.986634417484482,0.013365582515517997
2012-01-11 00:00:00-05:00,-7.904805417348646e-05,0.012047062832140612,0.0013271895628279155,0.02730495483483483,0.012388549322654343,0.027357299211764496,0.9584094051886043,0.04159059481139564
2012-01-12 00:00:00-05:00,-2.1379383384595927e-06,0.012050045650674945,0.0013140396371747651,0.02730068100166363,0.012276358659369843,0.02728377227576678,0.9745280809163441,0.025471919083655852
2012-01-13 00:00:00-05:00,5.7969082998343726e-05,0.012113995532498967,0.0013075232621528785,0.027295094012873358,0.012272425957378397,0.027198933506237997,0.9661048452977243,0.033895154702275734
2012-01-17 00:00:00-05:00,2.1672259905240943e-05,0.012124168372322958,0.001305027346680903,0.02730086550061033,0.012229760193584476,0.027202954743250806,0.9780892743684583,0.021910725631541682
2012-01-18 00:00:00-05:00,9.611635490001847e-05,0.012127799117529495,0.0012931531447285512,0.027294019534043607,0.012248118370418386,0.027167575649667555,0.9834050503650844,0.01659494963491561
2012-01-19 00:00:00-05:00,0.00035320639844541084,0.012171521672555814,0.0012662556472040395,0.027265528684167515,0.012217804064031048,0.026932395108356717,0.9596911328979285,0.04030886710207139
2012-01-20 00:00:00-05:00,0.00013430302332357853,0.012302319589197508,0.0012802888433815507,0.027279970921907527,0.01259367849975349,0.027096749203221804,0.9000921511142991,0.09990784888570094
2012-01-23 00:00:00-05:00,0.00012234902388468042,0.01229855464340758,0.0012915786480368902,0.027278880023370474,0.012444388841874437,0.027051901368880076,0.9199985032546985,0.08000149674530158
2012-01-24 00:00:00-05:00,6.053491985083166e-05,0.012317922969734822,0.0012920574678249785,0.027290542695887165,0.012250893740918178,0.027004787478963857,0.9539006070740151,0.046099392925984854
2012-01-25 00:00:00-05:00,-2.551124752795213e-05,0.012256458976388182,0.001305074483649243,0.027305171684189687,0.012179046332873885,0.027127781365286974,0.9733820206181434,0.026617979381856657
2012-01-26 00:00:00-05:00,0.00011373691539826264,0.01226082825535991,0.0012887785188349789,0.027293479594842518,0.012124900613984264,0.02701754608586587,0.97701483472288,0.02298516527712004
2012-01-27 00:00:00-05:00,0.00012283328265584812,0.012253049041594943,0.001291052984569688,0.0272944336526425,0.012150788967215487,0.02702848251121267,0.9825520784593129,0.017447921540687063
2012-01-30 00:00:00-05:00,5.2348752595068745e-05,0.012203381889790805,0.0013031938565816858,0.027303804136166697,0.012226822325779794,0.027175100711928867,0.9865297964247752,0.013470203575224816
2012-01-31 00:00:00-05:00,-5.6268364654579235e-05,0.01208034704577007,0.0013166429684841933,0.027313207703549756,0.012210925845100966,0.027344759203918875,0.9880147636587582,0.011985236341241884
2012-02-01 00:00:00-05:00,1.9046739834346323e-05,0.01205107508483267,0.0013075418536094366,0.02730533451357836,0.012199308390655224,0.02731872287008907,0.9893796742781269,0.010620325721873027
2012-02-02 00:00:00-05:00,8.074488284211294e-05,0.012105822709309193,0.0012994308810326356,0.027300977467072322,0.012182312709376595,0.027231181438996978,0.9822279191738639,0.017772080826136117
2012-02-03 00:00:00-05:00,-1.6257274895059932e-05,0.012144259847828173,0.00130978175273178,0.027311503800032787,0.012179856713120876,0.027256528725009874,0.9812682681377364,0.01873173186226356
2012-02-06 00:00:00-05:00,7.263964312584402e-05,0.012220302713190913,0.0012981940061325848,0.027303126413234537,0.012146650717999297,0.027106853464421238,0.9730405113301581,0.026959488669841873
2012-02-07 00:00:00-05:00,-2.182924920871273e-06,0.012207364007854956,0.0013065640655958298,0.027310175645678537,0.012122244246819307,0.02715888247246133,0.9820630905214077,0.017936909478592163
2012-02-08 00:00:00-05:00,4.5054411484160885e-05,0.012211332323473566,0.0013014441146964352,0.027304603417017306,0.012115398494017857,0.027120107566424575,0.98593754540552,0.014062454594480037
2012-02-09 00:00:00-05:00,-1.1493479640923602e-05,0.012170336302716873,0.0013096032257132095,0.027308706226524596,0.01215044035740833,0.027208288933090515,0.9878838793441131,0.0121161206558868
2012-02-10 00:00:00-05:00,-4.7122829205341456e-05,0.012145437817497651,0.0013136138496961573,0.027309496324523175,0.0121884947430335,0.02726294568588465,0.9885318752334176,0.011468124766582504
2012-02-13 00:00:00-05:00,-0.00014139601428514518,0.0121916565895139,0.001321822852312822,0.027313483981013777,0.012280924685479665,0.027301794457839073,0.9838880143028242,0.016111985697175677
2012-02-14 00:00:00-05:00,-0.00011270109542509765,0.01218803190313926,0.0013174632280700134,0.027300888482813705,0.012438687312270847,0.027319418807922834,0.9869006017913835,0.013099398208616444
2012-02-15 00:00:00-05:00,-0.0002190325828562342,0.012154564004964659,0.0013210794398095603,0.02730424603734696,0.012668897121630579,0.027476743179761755,0.9875640692773441,0.012435930722655876
2012-02-16 00:00:00-05:00,-0.00026517164454774463,0.01211292191619008,0.0013044925401154192,0.027302408776659043,0.013079730187993008,0.027653197773596143,0.9886212569629602,0.011378743037039854
2012-02-17 00:00:00-05:00,-0.0001797949786727224,0.012141706984074956,0.0012471743901694811,0.02730273830154169,0.013800632352928223,0.02784134340791868,0.9757597949604998,0.024240205039500255
2012-02-21 00:00:00-05:00,5.089987597321844e-05,0.011883597967100932,0.001309445400831098,0.027288325788304944,0.012273387253548918,0.027236815592053154,0.9826075501080083,0.01739244989199174
2012-02-22 00:00:00-05:00,7.991086480635095e-05,0.011873830020734296,0.0013049699986922546,0.027282829160190307,0.012280877889295877,0.027220239422256345,0.987138650670584,0.012861349329415964
2012-02-23 00:00:00-05:00,0.00011191822066165555,0.011858242971708009,0.001304185051402827,0.027275558176782826,0.012341629649057956,0.027221672312354898,0.9890249954563435,0.010975004543656498
2012-02-24 00:00:00-05:00,2.7351249853634414e-05,0.01177529532954439,0.0013093277641388493,0.02728071214312723,0.012306414226959397,0.0272725456539283,0.9894481294612186,0.010551870538781373
2012-02-27 00:00:00-05:00,-8.431842452067949e-05,0.011749192409447306,0.0013212154279388785,0.02728835007773381,0.01233345789446263,0.027332367693708295,0.9893536805618885,0.010646319438111475
2012-02-28 00:00:00-05:00,5.664327960871839e-05,0.011789666729412271,0.0013066261472520033,0.027271269910432227,0.012403872614069824,0.02726084960540495,0.9823323388361923,0.01766766116380773
2012-02-29 00:00:00-05:00,3.489814673533905e-05,0.011783341730945395,0.0013082809272540047,0.02726435581763187,0.012536537935308236,0.027277388546002746,0.9869514478931607,0.013048552106839376
2012-03-01 00:00:00-05:00,-0.00021416660092621068,0.011766930800866503,0.001329955329142088,0.02729574542061934,0.012477951599311032,0.02740025078208933,0.9734777305025946,0.02652226949740545
2012-03-02 00:00:00-05:00,-2.5296631850095364e-05,0.011788115700714525,0.0013123522341672138,0.027273656008903774,0.012511866439961659,0.027296752901084104,0.9653749266746605,0.03462507332533942
2012-03-05 00:00:00-05:00,4.2718412576453836e-05,0.011747145945412667,0.0013038870283725728,0.027260332499186215,0.01244992731720916,0.027211488553399134,0.9797144856807952,0.020285514319204858
2012-03-06 00:00:00-05:00,-0.00011953557278021283,0.011708028965833766,0.0013177447609592796,0.027275410363772762,0.01241596674443619,0.027266093775879,0.9823010635220798,0.01769893647792018
2012-03-07 00:00:00-05:00,-0.00014999037236386583,0.011735498725835954,0.0013212102779260743,0.027268743866021194,0.012491543174978064,0.027208062479543202,0.979294387510344,0.020705612489655995
2012-03-08 00:00:00-05:00,-2.0347942789768306e-05,0.011638988381560914,0.0013106537399859585,0.027254628555495722,0.012373661573864764,0.0271326722968684,0.985759794878495,0.01424020512150491
2012-03-09 00:00:00-05:00,6.381296307184782e-05,0.011792491076786352,0.0013202795822357537,0.027240796724630586,0.01279457797197496,0.02715183212860627,0.9125089013586388,0.08749109864136119
2012-03-12 00:00:00-04:00,3.1338947922483424e-05,0.011797124149093131,0.0013117017419071804,0.027217742408907095,0.012552174081149167,0.02677022222227798,0.9560022512800821,0.0439977487199179
2012-03-13 00:00:00-04:00,0.00012932347586826513,0.011760067028351603,0.0013068342343803205,0.02718684986432093,0.012435435591644818,0.02640724270238709,0.9748990242577873,0.0251009757422128
2012-03-14 00:00:00-04:00,0.0003078830626621468,0.011744088086711856,0.001302370200234885,0.027161813013737823,0.012384584902076397,0.02617186374942514,0.974057591274815,0.025942408725185145
2012-03-15 00:00:00-04:00,0.0001491827550306459,0.011655331609379045,0.0012956863179063077,0.02719955523414806,0.01228466164242862,0.026432952693795878,0.981265859407802,0.018734140592198002
2012-03-16 00:00:00-04:00,0.00011214764264628068,0.011657083570571701,0.0013116303704830661,0.02714865289447551,0.01219718502190691,0.025502039646640523,0.9867860860924288,0.013213913907571257
2012-03-19 00:00:00-04:00,3.157323567250524e-05,0.011616865840351433,0.0013047164319845766,0.027131456506539215,0.01210350002765194,0.024868533467085153,0.9892574865621254,0.010742513437874638
2012-03-20 00:00:00-04:00,0.00010255734535889026,0.011638385379025123,0.0013333253312801617,0.027047047970067763,0.011920580089061474,0.022808610031456632,0.987348502458825,0.012651497541174969
2012-03-21 00:00:00-04:00,2.6770366443872594e-05,0.011640021676743299,0.0013703368669389971,0.027001110546404233,0.011627873406354511,0.020160515124353833,0.9887336092985268,0.011266390701473191
2012-03-22 00:00:00-04:00,1.2072241413119119e-05,0.011612849034466655,0.001372766417583258,0.027037093917382626,0.011407510851109649,0.018299315054509494,0.9902190434306739,0.009780956569326033
2012-03-23 00:00:00-04:00,-9.024748601165493e-05,0.011622620871047798,0.0013309931941714909,0.027149475250851856,0.011278089061825088,0.01749141468949455,0.9861544449375649,0.013845555062435032
2012-03-26 00:00:00-04:00,-4.6552474581872394e-05,0.011600199358716833,0.0013577256049521226,0.027282151991996777,0.011154126079930807,0.016950785898999364,0.9874012980044901,0.01259870199550998
2012-03-27 00:00:00-04:00,7.039795114284189e-05,0.011657836575258256,0.0012271093432468176,0.027395018653734757,0.011191407956935677,0.01692225827587081,0.9706937049618265,0.029306295038173624
2012-03-28 00:00:00-04:00,9.906741909249522e-05,0.011588239432409227,0.0005792625293485881,0.02695025975095145,0.005097475143164274,0.014551795812436246,0.9916968031433846,0.008303196856615383
2012-03-29 00:00:00-04:00,8.277168169831725e-05,0.011601258466037264,0.0005816242773372419,0.026954469538838767,0.005093986756954838,0.014557144995863034,0.9922452922267846,0.007754707773215354
2012-03-30 00:00:00-04:00,0.00015182202949034194,0.011624039151807443,0.0005768856564365057,0.02694831508640382,0.0051052176582824325,0.014555971293098494,0.9927351663897102,0.007264833610289868
2012-04-02 00:00:00-04:00,6.583507355919112e-05,0.011567949465174572,0.0005803524558445762,0.026952927526113328,0.005072360971291197,0.014542383647320719,0.9947170427852436,0.005282957214756307
2012-04-03 00:00:00-04:00,0.0001994277831752065,0.011669166861993097,0.0005769001637996121,0.026947653940780823,0.005127970695808403,0.014570070508408488,0.9860426374830664,0.013957362516933488
2012-04-04 00:00:00-04:00,5.529739635201461e-05,0.011787890368632679,0.0006007363002939153,0.026978790106475525,0.005211997119991416,0.01466381429070734,0.9719650681815639,0.02803493181843607
2012-04-05 00:00:00-04:00,-4.286006724221408e-05,0.011876681685048195,0.0006112090810173008,0.026996994535805428,0.005269761402453673,0.014726877449033098,0.9634597183538561,0.03654028164614385
2012-04-09 00:00:00-04:00,0.00016061776593283587,0.012005315192703352,0.0006111806167216323,0.026966449348045377,0.005696740191282907,0.014895319703883938,0.8930304629745026,0.10696953702549744
2012-04-10 00:00:00-04:00,6.615931692953843e-05,0.01209819986476888,0.0005892846315016168,0.02696246391643566,0.006047041185932839,0.015060461179557423,0.8393203507731805,0.1606796492268196
2012-04-11 00:00:00-04:00,5.181656618339816e-05,0.012131036872491644,0.0004924305902674513,0.0269144111239734,0.006827367673361904,0.01531670307094764,0.7128764730220041,0.28712352697799587
2012-04-12 00:00:00-04:00,0.00033547782396719974,0.011973440746738454,0.000460151544738008,0.02671605801500163,0.009318637333456637,0.015808677247086362,0.3178330815056663,0.6821669184943336
2012-04-13 00:00:00-04:00,0.0003647119719157605,0.011929789587749625,0.000636900876579806,0.02662178957314768,0.010506625519836776,0.01593742449204644,0.15311670755952153,0.8468832924404784
2012-04-16 00:00:00-04:00,0.000338238039649961,0.0120327754443526,0.0005439849351435544,0.02658024053577904,0.010068233169778935,0.01600322078836157,0.2617451386878064,0.7382548613121935
2012-04-17 00:00:00-04:00,0.0004601033034397303,0.012089345975077704,0.0006190844333798052,0.026555394032254306,0.009435042547305995,0.016035095164943353,0.3868404089621959,0.613159591037804
2012-04-18 00:00:00-04:00,0.00038069171005267974,0.012075753658429104,0.000700926813421061,0.02653850005834914,0.009099636039462672,0.01606805421807257,0.44649589382900956,0.5535041061709904
2012-04-19 00:00:00-04:00,0.00032033601817913225,0.012213721773011683,0.0006651687587977566,0.026711794130392246,0.007408948298140311,0.016025180337237415,0.7227928071317453,0.2772071928682547
2012-04-20 00:00:00-04:00,0.0003387963820517964,0.012108188027919848,0.0008721269559935517,0.026421864284570804,0.009505867150901655,0.016010425672010112,0.3958797165911535,0.6041202834088464
2012-04-23 00:00:00-04:00,0.0005387626129862798,0.012313795183514943,0.0007283849919580586,0.026653408501365237,0.007451580139385824,0.01599395319830289,0.7254080393926288,0.2745919606073713
2012-04-24 00:00:00-04:00,0.0005301043183322814,0.012423617522297878,0.0006553365886941455,0.0268098391175551,0.006438276727702848,0.015858754465584105,0.88206320136248,0.11793679863752005
2012-04-25 00:00:00-04:00,0.0006332273768045941,0.012477831878048072,0.0006279936680901699,0.026861892863196807,0.006088861014390721,0.01577069888919044,0.9359514232072843,0.06404857679271571
2012-04-26 00:00:00-04:00,0.0007209762170215275,0.012573228000441921,0.0006452819028988326,0.026844853610449346,0.006182776410380151,0.015727825084956064,0.9174025869190124,0.08259741308098745
2012-04-27 00:00:00-04:00,0.0007654418249526627,0.012609529130019323,0.0006162229187390672,0.02687951457433507,0.006000216587317555,0.015694830519648574,0.9519643668081267,0.04803563319187329
2012-04-30 00:00:00-04:00,0.0008458222776452544,0.012610226451953555,0.0005834333925937315,0.02689516869367591,0.0059421302390784796,0.01570531698098254,0.9749785184707287,0.025021481529271236
2012-05-01 00:00:00-04:00,0.0009698945075654346,0.012485449179820864,0.000560596933804318,0.026877372524624375,0.00584177245458299,0.01570887450050547,0.9845168524346408,0.0154831475653591
2012-05-02 00:00:00-04:00,0.0012142040484916987,0.012444053506891522,0.0005284828617495641,0.02683902482862053,0.005837776144551364,0.01568231645890925,0.9823102227704416,0.01768977722955847
2012-05-03 00:00:00-04:00,0.0012380844086799091,0.0124434780387709,0.000520134147642926,0.02684140181218644,0.005806831161074918,0.015673284075027345,0.9892604539529338,0.010739546047066194
2012-05-04 00:00:00-04:00,0.001185722068937773,0.012433559082831187,0.0005238706937298197,0.026850412462855258,0.005804209186021238,0.015694377740757864,0.9922923152458927,0.007707684754107384
2012-05-07 00:00:00-04:00,0.0010199754914288106,0.01248193237477031,0.000546340436390974,0.02688095638105952,0.005804422320948672,0.015703386409584207,0.9885938056319811,0.011406194368018928
2012-05-08 00:00:00-04:00,0.0010628027075256785,0.012505452575695237,0.0005391942446484121,0.02687797331425087,0.005833957578861988,0.015699353474628888,0.9895188101859811,0.010481189814018894
2012-05-09 00:00:00-04:00,0.001213677545824777,0.012384436732836943,0.0005135708850183386,0.026839391252458634,0.005834242543795454,0.015737906212953786,0.9925145457854307,0.007485454214569246
2012-05-10 00:00:00-04:00,0.0011995529868865913,0.012391249331137562,0.0005141652163795831,0.02684205351989956,0.005851000176584485,0.01574602788906363,0.993113546877198,0.00688645312280197
2012-05-11 00:00:00-04:00,0.001284113680035605,0.012326639398055714,0.0004985072067851352,0.026817444974806818,0.0058847285964945826,0.01579063415437744,0.993963455742397,0.006036544257603046
2012-05-14 00:00:00-04:00,0.0012371292208132858,0.012338477336333609,0.0005050415735786875,0.026825070856514092,0.0059179394957930235,0.015810634717306968,0.9938773125546696,0.00612268744533034
2012-05-15 00:00:00-04:00,0.001191541160938453,0.012401161403200585,0.0005155219072911128,0.026842758828756023,0.00592336126739376,0.015781909256532344,0.9829598221026563,0.01704017789734371
2012-05-16 00:00:00-04:00,0.0010018833611856702,0.012346930237219588,0.0005361702569009578,0.026862061131070775,0.005896287982809216,0.015846151968326425,0.9865991346488975,0.013400865351102631
2012-05-17 00:00:00-04:00,0.0009846318524755007,0.012352892184482623,0.000538773334932215,0.026864653843280566,0.005895473270737361,0.015844437889845048,0.9905354278916683,0.009464572108331733
2012-05-18 00:00:00-04:00,0.0008652447535059112,0.012550661870099056,0.00054129110935437,0.026902401435939798,0.006099212111019266,0.015865974410184155,0.9402178742471664,0.05978212575283363
2012-05-21 00:00:00-04:00,0.0008827527982125246,0.012529786709823323,0.0005393763940498229,0.026894791968436044,0.0060264739068235824,0.01583379523964916,0.9501476691497801,0.04985233085021988
2012-05-22 00:00:00-04:00,0.0010711707168777897,0.012597089293876186,0.0005279971185869542,0.02687125672792474,0.0061106231175484475,0.01580465535346846,0.9343600846109101,0.06563991538908977
2012-05-23 00:00:00-04:00,0.000937663439209908,0.012551030760558433,0.0005504863779543806,0.026891209042480605,0.005907565071740574,0.015753263961161626,0.9661195793181607,0.03388042068183929
2012-05-24 00:00:00-04:00,0.0010549778504411167,0.012602234492683233,0.0005450038013809644,0.02688100697778235,0.00589395410565821,0.01569920782615433,0.9692637813207085,0.03073621867929144
2012-05-25 00:00:00-04:00,0.0011951653372158236,0.012797654309126555,0.000587432058586855,0.026828353628765646,0.006973328329289574,0.016102454177196048,0.8048213931122753,0.1951786068877247
2012-05-29 00:00:00-04:00,0.0010814739771847033,0.012833668034054446,0.0005637625707917665,0.02685371073782645,0.006589680235889648,0.0159518378353487,0.872429115763579,0.1275708842364211
2012-05-30 00:00:00-04:00,0.0013414102242437491,0.012767106383943449,0.0005592645501843878,0.026805628193952803,0.006514883796059025,0.015885297710745667,0.8728931773278896,0.12710682267211046
2012-05-31 00:00:00-04:00,0.0012402869763548274,0.012797938003277156,0.0005297122889105978,0.026679889253369123,0.008423057143021958,0.016609145732022275,0.6107769613151445,0.3892230386848556
2012-06-01 00:00:00-04:00,0.001396071899817914,0.01283561567649255,0.000542476754971913,0.026707372514445736,0.007419602969678745,0.016228980687200342,0.7544638282620465,0.2455361717379535
2012-06-04 00:00:00-04:00,0.0015383690434892787,0.012322815166765403,0.00011408288250321677,0.02628065619165374,0.014424682602160824,0.0185522532578587,0.010184057619067467,0.9898159423809325
2012-06-05 00:00:00-04:00,0.0014189820471054227,0.012263208165997583,-3.721814391154369e-06,0.026170519901719015,0.01456400422442422,0.018744046798775248,0.03559631489599134,0.9644036851040086
2012-06-06 00:00:00-04:00,0.0015607329445482348,0.012198604891469412,7.965096179723364e-05,0.026023475989264407,0.014950427031550657,0.019209675920630193,0.08018415221328884,0.9198158477867111
2012-06-07 00:00:00-04:00,0.0014979181119084866,0.012230592825102563,0.00035238551683307274,0.02605867408917832,0.01501621121274256,0.01863304974284287,0.034049784014403235,0.9659502159855968
2012-06-08 00:00:00-04:00,0.0016400309278551079,0.01217979664409279,0.00037489531734374626,0.025906509987445224,0.015425722596811745,0.01927579546021962,0.09801729650316052,0.9019827034968395
2012-06-11 00:00:00-04:00,0.001703418451339999,0.012213961150458818,0.00043137369434407093,0.02582505247828975,0.015887644251856882,0.02012656955691937,0.19069239547979777,0.8093076045202022
2012-06-12 00:00:00-04:00,0.0015433926017296136,0.012138268571911517,0.00031817042725634185,0.02574970951259107,0.016147161218286847,0.020101347759498508,0.1742839023339903,0.8257160976660097
2012-06-13 00:00:00-04:00,0.0017766377390680676,0.011959063422025924,0.0004222512363478307,0.02558253309119616,0.01698404107128703,0.02024026637096707,0.14538812141712307,0.8546118785828769
2012-06-14 00:00:00-04:00,0.001736451496223134,0.012037607200840253,0.0002773260607697718,0.02555829308841885,0.016697455852371885,0.01918816113559541,0.08054016741264143,0.9194598325873586
2012-06-15 00:00:00-04:00,0.0016560478775798054,0.012132891294477548,0.0002872425542680042,0.02553932071214377,0.01670042928398028,0.01999229607287825,0.19277275252641715,0.8072272474735829
2012-06-18 00:00:00-04:00,0.0016094848533121625,0.012177251486319107,0.00048354227143304195,0.02551699499440353,0.016841900512848534,0.019296985550487596,0.13785748650359955,0.8621425134964005
2012-06-19 00:00:00-04:00,0.0014657104176213369,0.01189932498833511,0.0004875745912669727,0.02537396610602247,0.018109430255152086,0.021333743181403422,0.254388256089445,0.7456117439105551
2012-06-20 00:00:00-04:00,0.0015208131159454713,0.012024150540560732,0.0005346798791139724,0.025408361696059003,0.017825775512732487,0.022077583760016246,0.37071840607607504,0.6292815939239249
2012-06-21 00:00:00-04:00,0.001644522367752758,0.012052000217464503,0.00044108491340257076,0.02545666126367516,0.018283202666833673,0.024462632967670702,0.5941530341354686,0.40584696586453145
2012-06-22 00:00:00-04:00,0.001518465712170538,0.01207578660481432,0.00033017659934211045,0.025257254168542406,0.01754649101901112,0.018647947000934514,0.06584293516519124,0.9341570648348089
2012-06-25 00:00:00-04:00,0.001541667747132648,0.012166052818876696,0.0004677062912999651,0.025232228048636896,0.017434830254699905,0.018568102866107977,0.09597831485849449,0.9040216851415055
2012-06-26 00:00:00-04:00,0.0014069338735818585,0.01206680738832247,0.0002595760331801014,0.025201422921352513,0.017775070557022484,0.018005364085334884,0.024012510610289587,0.9759874893897104
2012-06-27 00:00:00-04:00,0.0013406701894005729,0.012141239103750819,0.0003905772527966827,0.025164701576644768,0.01773547613678056,0.017984054280967363,0.05580564963473306,0.944194350365267
2012-06-28 00:00:00-04:00,0.001200163502728085,0.012047071076865097,0.000441471476324513,0.025067418199395154,0.018495733278879704,0.0190064959463077,0.13197201727372146,0.8680279827262786
2012-06-29 00:00:00-04:00,0.0011032284560623885,0.012091651670184602,0.0004454548014635936,0.0250488398861602,0.01873604127822778,0.020263887995519078,0.2763414718394161,0.723658528160584
2012-07-02 00:00:00-04:00,0.0011844674459820877,0.012161186843531836,0.0006064120153186058,0.0249931492060655,0.01840874480630112,0.018560051228418632,0.1471337087169464,0.8528662912830536
2012-07-03 00:00:00-04:00,0.0010830351231238687,0.012214423644839921,0.0005117045910761171,0.024956099362905156,0.018428852652369085,0.018637928591791555,0.18593766735014594,0.8140623326498541
2012-07-05 00:00:00-04:00,0.0010425258746862816,0.01229383825468482,0.0004879651614989547,0.024964547122400815,0.018797172052456998,0.020094475812477645,0.35963891092873235,0.6403610890712677
2012-07-06 00:00:00-04:00,0.0012281247914844738,0.012237692080548675,0.0004570859209901873,0.024964003951444404,0.01977801345378083,0.022238843459931837,0.5529697172070125,0.4470302827929875
2012-07-09 00:00:00-04:00,0.001512395611584694,0.011773465649954297,0.0003784521082507787,0.024790147050593243,0.02291949013680106,0.025410477640885356,0.7221954076586038,0.27780459234139615
2012-07-10 00:00:00-04:00,0.001399126082393492,0.012102827688767201,0.0003495336741692992,0.0248146411246769,0.02079120765509767,0.02266857672365846,0.5613325422196725,0.4386674577803274
2012-07-11 00:00:00-04:00,0.0013127289364182407,0.012326942939640794,0.00031105266133573,0.024912910693962825,0.01978259680940725,0.022447107713246005,0.6452394691299298,0.3547605308700702
2012-07-12 00:00:00-04:00,0.001352971623024093,0.01225025770694268,0.0003084271460036656,0.024912173450883715,0.020133426369501325,0.023196344536216214,0.6872600493864053,0.3127399506135948
2012-07-13 00:00:00-04:00,0.0011646283410225548,0.012276863795754068,0.00035266080188671613,0.025046263471652515,0.01985168326175868,0.024429195153770396,0.8296786944155471,0.17032130558445288
2012-07-16 00:00:00-04:00,0.0015573748579755106,0.012351390619579135,0.0002938967276208958,0.02477639351204105,0.01981541618782732,0.021019180796786722,0.6005538302658873,0.3994461697341128
2012-07-17 00:00:00-04:00,0.001498933106243941,0.012538601726517083,0.00020147872047725045,0.02481847976848567,0.01818738191848495,0.019396673966986445,0.669729019074948,0.3302709809250521
2012-07-18 00:00:00-04:00,0.001770331023589772,0.012573759047974038,0.00011785753597049179,0.024626120770115046,0.017419394632796327,0.01585847663361529,0.598436032997496,0.4015639670025039
2012-07-19 00:00:00-04:00,0.0017685027727405089,0.012721903260806227,1.5575174168365134e-05,0.02485601437521943,0.016011819651949456,0.01578925667415302,0.7765985420500381,0.22340145794996188
2012-07-20 00:00:00-04:00,0.0020829776509090807,0.012134130777943297,0.0005970014066424006,0.02469412846374493,0.017800134618649145,0.009200169028537398,4.05116829082858e-06,0.9999959488317092
2012-07-23 00:00:00-04:00,0.002108268374196087,0.012134084518398824,0.0007294228511062709,0.024712881624608225,0.017616124076967343,0.00882387298718625,0.010589832234794018,0.989410167765206
2012-07-24 00:00:00-04:00,0.0020859843412986585,0.01214648387853437,0.000706038264234989,0.02477496064927905,0.017674040349238425,0.009192147549814182,0.004238618131340972,0.9957613818686591
2012-07-25 00:00:00-04:00,0.002099672060763364,0.012095805081972374,0.0006813631267093942,0.024783738387589384,0.018317833881813666,0.009864689563449627,0.008012425642653524,0.9919875743573465
2012-07-26 00:00:00-04:00,0.0021211276044795983,0.012098602216754137,0.0006438444251910002,0.0247656538840244,0.01811644233069049,0.009316131539184012,0.02268318876163421,0.9773168112383658
2012-07-27 00:00:00-04:00,0.0021207372392531712,0.012118345394329913,0.0007199117265239756,0.024773895339605067,0.017887467952835263,0.009214745408953937,0.059094156582568426,0.9409058434174316
2012-07-30 00:00:00-04:00,0.0021220583024944965,0.012148438746254321,0.0008828237053541187,0.02483949201030465,0.01758724767802766,0.008934829181823917,0.05978048211768319,0.9402195178823168
2012-07-31 00:00:00-04:00,0.002132998979445996,0.01208105746482816,0.0010872536532608675,0.02474232925266992,0.018760978705289554,0.010198512923708053,0.1399550163223695,0.8600449836776305
2012-08-01 00:00:00-04:00,0.002114081678239873,0.012100371981858218,0.0009292415493882758,0.02477394328362699,0.018606673259088134,0.010099657951270477,0.14936488452839594,0.850635115471604
2012-08-02 00:00:00-04:00,0.002180352416514154,0.011820365440088364,0.0012294654922341214,0.024134363800198785,0.021303382619884955,0.011547626285008194,0.1697477549724051,0.830252245027595
2012-08-03 00:00:00-04:00,0.0021423052785296717,0.011691658879271618,0.001213949288278549,0.024177110359056665,0.02365158829760861,0.013811966210495097,0.3182292677615929,0.6817707322384072
2012-08-06 00:00:00-04:00,0.002275571287872629,0.01140657942508981,0.0016196442654511044,0.0236171991053322,0.02626543735716095,0.01516025660922043,0.37827855937750915,0.6217214406224908
2012-08-07 00:00:00-04:00,0.0023972510703197747,0.011164456383147019,0.0011984505633404802,0.023107438814376467,0.028148717222679843,0.016816301766865785,0.536722372803363,0.46327762719663695
2012-08-08 00:00:00-04:00,0.002509438469472998,0.011114943830147014,0.001585918759037025,0.022667489587102654,0.028680362206893607,0.017543767170770847,0.5824432271247838,0.4175567728752162
2012-08-09 00:00:00-04:00,0.0025241044567051478,0.011036087205006453,0.0014072722911686673,0.022725586389515832,0.029274751940089397,0.01973919968676938,0.75758592279801,0.24241407720199
2012-08-10 00:00:00-04:00,0.0025429128080948432,0.010959605300928418,0.001388528564473677,0.02283177475300261,0.02912311348656261,0.02024440392927645,0.8623215060246899,0.13767849397531004
2012-08-13 00:00:00-04:00,0.0024597623660051497,0.010921858695269458,0.0012597420793540866,0.022879130712318126,0.029029984183599367,0.02077935992857862,0.9040244808552319,0.09597551914476814
2012-08-14 00:00:00-04:00,0.00236169230594932,0.010900050696607204,0.0014039186007299676,0.022922304088037075,0.028911741582972664,0.021301951382171586,0.9252335426144589,0.07476645738554118
2012-08-15 00:00:00-04:00,0.0021183867157205808,0.011104195962731885,0.001450309128689228,0.02307352853309179,0.0284220888737033,0.021305060375851618,0.8833185057611619,0.11668149423883817
2012-08-16 00:00:00-04:00,0.0022039699324944285,0.010959097191923416,0.0019028922826220024,0.02234450936204215,0.02854121387583303,0.021160066878367103,0.9060107315585165,0.09398926844148345
2012-08-17 00:00:00-04:00,0.002259101942287396,0.010876287345555775,0.0020514079535263953,0.02233661010232301,0.028392547556499063,0.021726552701554186,0.9377254909888575,0.062274509011142495
2012-08-20 00:00:00-04:00,0.002260855499197203,0.010792239971752438,0.0020562246045204855,0.022404970724225585,0.028031108277269668,0.02141218220675625,0.956808506348282,0.04319149365171803
2012-08-21 00:00:00-04:00,0.0021275621564701428,0.010822714979301635,0.0018599755882182014,0.022368757086136934,0.02808762044820761,0.0224202476557394,0.9453580056912855,0.054641994308714435
2012-08-22 00:00:00-04:00,0.0019058982803316512,0.010991071320024177,0.0018468891319953994,0.02248466482765915,0.027820437399592224,0.02234218816387514,0.9032181305666225,0.0967818694333776
2012-08-23 00:00:00-04:00,0.0021327106413555935,0.011151450652444828,0.0019832874511490927,0.02253476188872343,0.03319868119943119,0.02326613559449897,0.39023851967733225,0.6097614803226677
2012-08-24 00:00:00-04:00,0.0020860627312850257,0.011086262428494528,0.0017642749566348964,0.022533505456015464,0.03518647807512285,0.023473425505653824,0.23877961290412994,0.76122038709587
2012-08-27 00:00:00-04:00,0.0019983207110667515,0.011331453999535102,0.001520374760699419,0.022436518639595657,0.032598714074753773,0.025887992424755542,0.46615960330084455,0.5338403966991554
2012-08-28 00:00:00-04:00,0.0019312528063735685,0.01144183641563922,0.0014866610021958765,0.02253147095532013,0.029725632731528406,0.025287295928376287,0.6693577707451981,0.330642229254802
2012-08-29 00:00:00-04:00,0.0018740748670086347,0.01147407192185169,0.0014873914572387265,0.022630278807876304,0.02788102457477155,0.024379454921201936,0.7862621412715145,0.21373785872848547
2012-08-30 00:00:00-04:00,0.0018966146485941977,0.011505825898754374,0.0016734501017961559,0.022702237315236157,0.026846818622932814,0.025199670237885413,0.8667461042317327,0.13325389576826718
2012-08-31 00:00:00-04:00,0.0017834661594938132,0.011594376834579045,0.0018442314683126554,0.022809067858770227,0.026366434398249497,0.02648056142976429,0.8814127709632367,0.11858722903676328
2012-09-04 00:00:00-04:00,0.0018871723967843165,0.01158037494144837,0.0018944265702278357,0.022846753896920535,0.025876225863867935,0.02540548012564354,0.8904269428317221,0.10957305716827788
2012-09-05 00:00:00-04:00,0.0016743834354882399,0.0117625330406863,0.0017763557430524385,0.0229766122760559,0.025597905474446743,0.027028744128823057,0.850808051961512,0.14919194803848804
2012-09-06 00:00:00-04:00,0.0017069309219180197,0.011705293582617998,0.001807201937519738,0.023018355409083778,0.024623299467163663,0.025616291238668532,0.9058332602067701,0.09416673979322987
2012-09-07 00:00:00-04:00,0.0019640750845270546,0.011536286675342225,0.0020411866174606897,0.022835613656368426,0.0346559405976176,0.02943297232790845,0.18065874957944209,0.8193412504205578
2012-09-10 00:00:00-04:00,0.0019200368288126587,0.01173469007706041,0.0020955458543651666,0.02294546855280203,0.031134226615735335,0.027852108648122195,0.3845635104877254,0.6154364895122746
2012-09-11 00:00:00-04:00,0.0019554474215879307,0.011585273313861959,0.0020716788759827824,0.02285489236611887,0.033915998227082925,0.028488069751217884,0.22527630599971943,0.7747236940002806
2012-09-12 00:00:00-04:00,0.001969887089224364,0.01180172395338963,0.001926926286084532,0.023011040708406906,0.030617740987751888,0.02865174983681892,0.4539537657229603,0.5460462342770397
2012-09-13 00:00:00-04:00,0.0019737794055600987,0.012005010991347723,0.0017562697387779335,0.02321570224426476,0.02697117403226708,0.028463315988136572,0.6811666411432917,0.3188333588567082
2012-09-14 00:00:00-04:00,0.0020248198291967293,0.011965025681959384,0.0017717750456210097,0.02315180653889046,0.028771053866143648,0.02804942341944444,0.5063457951660914,0.4936542048339087
2012-09-17 00:00:00-04:00,0.002097994417394007,0.012223208343168387,0.001793364011225951,0.023445040119436305,0.024289837943616086,0.02711265483187712,0.7463947195237193,0.2536052804762807
2012-09-18 00:00:00-04:00,0.0020893342973523346,0.012322279340378587,0.0017910469059194912,0.023678772500862755,0.02202654347658243,0.026253080440104486,0.8577606814732007,0.14223931852679933
2012-09-19 00:00:00-04:00,0.0020309018310407483,0.012212676099225777,0.0022447572427834557,0.023071235064338447,0.02279421588051946,0.026365829205160403,0.8561304449746135,0.1438695550253864
2012-09-20 00:00:00-04:00,0.002013731910958514,0.012061225434131526,0.0026581915394006716,0.022567964106952058,0.02404045527379138,0.027507069974524696,0.883950248744278,0.11604975125572212
2012-09-21 00:00:00-04:00,0.002080596510309097,0.012032930633784088,0.0028386450479350716,0.02259703119008494,0.023754658262772066,0.02778588586263834,0.9139683033822555,0.08603169661774443
2012-09-24 00:00:00-04:00,0.002096354461768317,0.011826243057921336,0.002284465534771008,0.02197800745614667,0.02554416030091763,0.02824757428324176,0.9122954653022943,0.08770453469770564
2012-09-25 00:00:00-04:00,0.0020383260804225606,0.011781653044136479,0.0020437707402455323,0.02191648316249236,0.02571621031516417,0.028816200104799353,0.9251808759933462,0.07481912400665386
2012-09-26 00:00:00-04:00,0.0018606698593477665,0.01182371553633244,0.002471015611718583,0.021604080921330277,0.026704273004280178,0.030245848499523765,0.8857172774951073,0.11428272250489262
2012-09-27 00:00:00-04:00,0.0018110179425986142,0.011770808291116574,0.0024005935232550377,0.021691475436146003,0.026519326740756542,0.030334668506620262,0.9183425696253624,0.08165743037463749
2012-09-28 00:00:00-04:00,0.001824672731817269,0.011690705132426147,0.0026371233420775645,0.021626938027818288,0.02687512362528852,0.031010340950764433,0.9379910914766696,0.062008908523330394
2012-10-01 00:00:00-04:00,0.0017531867065948795,0.011564564737187734,0.002926264219633043,0.021464148953362905,0.028305736330841557,0.03240992086452444,0.9467258565838574,0.05327414341614257
2012-10-02 00:00:00-04:00,0.0018260023908541984,0.011439386352448374,0.002638342395083548,0.021341852348732315,0.029194971453668388,0.03312334615788073,0.9516260124339806,0.04837398756601943
2012-10-03 00:00:00-04:00,0.0017516930289116883,0.011340797591922665,0.0024026841783499546,0.02124989620123086,0.03070265633748428,0.035263429004737126,0.9453696839900857,0.05463031600991425
2012-10-04 00:00:00-04:00,0.0018847318360708596,0.011463720374796049,0.0022918643297475554,0.021371790128894657,0.028977603712293954,0.03400008616103248,0.9196359574706555,0.0803640425293445
2012-10-05 00:00:00-04:00,0.0019028583919059943,0.011394352724447217,0.0023314679309583666,0.021449517072336263,0.02878436756408692,0.03371837118945517,0.9420012765750494,0.057998723424950674
2012-10-08 00:00:00-04:00,0.0019988817537418004,0.011224299938235052,0.0019290850998277976,0.02114111242246485,0.03092171125250691,0.036756804332876716,0.94563224487957,0.05436775512043001
2012-10-09 00:00:00-04:00,0.0019660159876884044,0.011154685353456003,0.0019777739378537464,0.021187696270383256,0.030724222376776383,0.035784427705575876,0.9539385282060618,0.046061471793938276
2012-10-10 00:00:00-04:00,0.0017938826132042611,0.011356508292489168,0.0018569998963587815,0.021332110826701608,0.029597606975223022,0.036198794951222704,0.9008808011521466,0.09911919884785335
2012-10-11 00:00:00-04:00,0.0017467080653701997,0.011316271276725609,0.0019007862022611983,0.021427643351397838,0.02909726238421677,0.03568454951883928,0.9292649593545697,0.07073504064543028
2012-10-12 00:00:00-04:00,0.0017494412567909084,0.011222960250598,0.0016650114684990138,0.021344239532796863,0.029354953093637302,0.03596994353313069,0.9463686416237046,0.05363135837629533
2012-10-15 00:00:00-04:00,0.001623029853734262,0.011226247798458953,0.0019454978365196474,0.021302018138187686,0.02964316994777157,0.036721380914230585,0.9351538891862503,0.06484611081374968
2012-10-16 00:00:00-04:00,0.001774861858068931,0.01124377015524745,0.0015630805804839139,0.02106202959836024,0.029601375542270374,0.03645874323668222,0.9059438766273266,0.09405612337267347
2012-10-17 00:00:00-04:00,0.001868701975762997,0.011256444531668856,0.0017884723123722517,0.021013554194368636,0.029441371344532057,0.03677000002808915,0.9002376119100045,0.0997623880899955
2012-10-18 00:00:00-04:00,0.0019531023030345614,0.011211482753463344,0.0015510053667463566,0.02098219262125024,0.029204456471201113,0.03667136294886904,0.9201529355927712,0.07984706440722877
2012-10-19 00:00:00-04:00,0.0019787358325664005,0.011069881847460175,0.0011955431617667266,0.02068113305659433,0.030337657779718287,0.037947762326936314,0.9384763895513902,0.06152361044860965
2012-10-22 00:00:00-04:00,0.0018674191966832673,0.011125770904645685,0.0011423725170388234,0.020810931278512256,0.02973405480836034,0.037671622561470886,0.9214655037838126,0.07853449621618745
2012-10-23 00:00:00-04:00,0.0018366118560326494,0.011041852508439517,0.0013867792313099533,0.020741550258784987,0.030123112571036583,0.03823781081367145,0.9407394832326991,0.059260516767300944
2012-10-24 00:00:00-04:00,0.0016997902788434749,0.01119918225445389,0.00112122564971624,0.020726127853156827,0.029885530753097703,0.03864044636618136,0.8613020279779491,0.13869797202205084
2012-10-25 00:00:00-04:00,0.0018306975438495238,0.011125290532562927,0.0006508393782053018,0.020126447269705194,0.030809791427000764,0.03880209133708356,0.8504210278282285,0.1495789721717715
2012-10-26 00:00:00-04:00,0.0017415687237504471,0.011153707542777832,0.0006119971453574462,0.020251000524820657,0.03010680946308094,0.038474882732325445,0.8608642103734453,0.13913578962655473
2012-10-31 00:00:00-04:00,0.0017005694712727937,0.011064263366675842,0.0009950598485514394,0.01998324228999058,0.030859937851595798,0.039577588898944735,0.9005057033888284,0.09949429661117166
2012-11-01 00:00:00-04:00,0.0017639639596004077,0.011013912790149537,0.0011800714158590152,0.01995658471574644,0.03102977864236948,0.040731519410399174,0.9196416423886786,0.08035835761132146
2012-11-02 00:00:00-04:00,0.0017893239001892723,0.010991963629699689,0.0013063141915774803,0.01996277301998156,0.042430130366323954,0.04775446412324242,0.1389553497027191,0.861044650297281
2012-11-05 00:00:00-05:00,0.0017359622048276802,0.010905350612774012,0.0010344042348769834,0.01993383679469559,0.04419313173296566,0.050270407784428525,0.1276914326337189,0.872308567366281
2012-11-06 00:00:00-05:00,0.001753682553228421,0.010945302573892304,0.0011670334379380203,0.01994174323230999,0.043299161945837425,0.04816137250715128,0.17716286499819514,0.8228371350018049
2012-11-07 00:00:00-05:00,0.0017927293536894235,0.01103545432254734,0.0011725644818725424,0.020025755108595288,0.041254028069995285,0.04718997216468111,0.28556322326158246,0.7144367767384175
2012-11-08 00:00:00-05:00,0.0017506445281408693,0.011042642665538135,0.0009693756084111198,0.02007149953594864,0.041308066480451044,0.04642624947786433,0.24050317064982346,0.7594968293501766
2012-11-09 00:00:00-05:00,0.0017196127160409407,0.010861845155310737,0.0012130924556313745,0.01952475958111071,0.045436736651222574,0.04756065885518668,0.06108865547710725,0.9389113445228927
2012-11-12 00:00:00-05:00,0.0016944800126597458,0.010876728990468888,0.0011441963013497651,0.01950345585785668,0.04506127415324656,0.04701461131407777,0.16459772542254594,0.8354022745774541
2012-11-13 00:00:00-05:00,0.0016462544555739388,0.010878259506629007,0.001011300316691027,0.01947628098606456,0.04591049382252887,0.05055184838634421,0.3189654099962554,0.6810345900037446
2012-11-14 00:00:00-05:00,0.0016205253459105691,0.010888864071098845,0.0011142937423316607,0.01955513176454302,0.046211329497951294,0.05325274434965669,0.49346363989611114,0.5065363601038888
2012-11-15 00:00:00-05:00,0.0015568828998366244,0.010928447271541674,0.0010916739975551674,0.019681356920336138,0.045617900893149925,0.054109648454517364,0.5614858408606082,0.4385141591393919
2012-11-16 00:00:00-05:00,0.0014104031212220224,0.01095585917395944,0.0014481975836184338,0.019588771136834913,0.04697598038425237,0.05811847332477518,0.6465269414089517,0.35347305859104833
2012-11-19 00:00:00-05:00,0.0012939023605291527,0.01094186771591438,0.0018893243437975381,0.01962215788212575,0.04952926995410954,0.06725840186366548,0.7888243176111012,0.2111756823888988
2012-11-20 00:00:00-05:00,0.0015178669204493087,0.01084528990249817,0.001813571443731571,0.01940907685227812,0.05021362103292203,0.05244111940810304,0.07205000070470378,0.9279499992952962
2012-11-21 00:00:00-05:00,0.001489469817941361,0.010849540473432074,0.0021463647461034316,0.019345952293703665,0.05148180848559169,0.05588267144277068,0.14621043804215145,0.8537895619578486
2012-11-23 00:00:00-05:00,0.0015132746475627632,0.010881085984746743,0.0022001340146526114,0.01939049938701553,0.051234959936927546,0.05743978334849227,0.2997490380040988,0.7002509619959012
2012-11-26 00:00:00-05:00,0.0015235186243366004,0.010896002479190097,0.002504589127838908,0.019366274657587196,0.0526858485091484,0.06129534183403988,0.37042816717293997,0.62957183282706
2012-11-27 00:00:00-05:00,0.0015121168262675474,0.010980337772305369,0.0025511222287826767,0.019598974808002375,0.05253264574020262,0.06614404807515431,0.5531935905412723,0.44680640945872774
2012-11-28 00:00:00-05:00,0.0015277028679926386,0.01086180258008419,0.0021011821366305893,0.019208881973536127,0.05559457893090406,0.0687801054302624,0.6539023675227661,0.3460976324772339
2012-11-29 00:00:00-05:00,0.00148460803994909,0.010870782776257339,0.0020705006307591917,0.019389716359334216,0.05527073719209476,0.07176653888619773,0.7603869952734087,0.2396130047265913
2012-11-30 00:00:00-05:00,0.001311974837163128,0.011078554627572153,0.0018712559553162094,0.01885084670197665,0.05160624883192995,0.07824590969558942,0.8224179593526891,0.17758204064731087
2012-12-03 00:00:00-05:00,0.0014668468641498113,0.011062676440367437,0.0019087250956069854,0.01886697078683667,0.051133010290245806,0.07794454186261027,0.818596851441774,0.18140314855822606
2012-12-04 00:00:00-05:00,0.0013619256010635526,0.011230406006534233,0.0020060985707213417,0.018939489733857447,0.05092263694494648,0.07904715080637656,0.46801599277489453,0.5319840072251054
2012-12-05 00:00:00-05:00,0.0013384412258875397,0.011258383733265187,0.001952542147847638,0.018933555796515424,0.05081215413938884,0.07863756964173997,0.592693923915823,0.407306076084177
2012-12-06 00:00:00-05:00,0.0013183442028006152,0.011216439218895652,0.0018719281368745507,0.01891161445379411,0.05186330672068284,0.07743318557359491,0.6661320911554715,0.3338679088445286
2012-12-07 00:00:00-05:00,0.0015338152311522731,0.010816313582976687,0.0018895751039959348,0.01843960265547428,0.05866294130852393,0.06199510521778369,0.13710499515981991,0.8628950048401801
2012-12-10 00:00:00-05:00,0.0015124550966183986,0.011038359080723715,0.0020306128812270408,0.018640674240622407,0.05303983049238673,0.06603517329584414,0.19761736858536946,0.8023826314146305
2012-12-11 00:00:00-05:00,0.0014580978916822495,0.010977091604225536,0.0021341962161442888,0.018611738387683256,0.05448270532852568,0.0657064310339705,0.15780258454368046,0.8421974154563195
2012-12-12 00:00:00-05:00,0.0015367072668636612,0.010954987387340829,0.002274469250535436,0.018574544633187588,0.05324663223873918,0.06661110796038067,0.2666951417398569,0.733304858260143
2012-12-13 00:00:00-05:00,0.0016127098546419977,0.010981202687090753,0.0022882757759971717,0.018649017386233608,0.05334454869165271,0.07058929027821464,0.4265475036172186,0.5734524963827814
2012-12-14 00:00:00-05:00,0.0017239045640216042,0.010959409580223846,0.0023345776058613797,0.018725254829596243,0.05374924426077858,0.07508862582410286,0.5852168971911706,0.41478310280882924
2012-12-17 00:00:00-05:00,0.0016241425300757924,0.010706097018365153,0.0027030414140697817,0.01847091283798396,0.05655109686358168,0.059432807658829016,0.03334072492886641,0.9666592750711337
2012-12-18 00:00:00-05:00,0.0015717421104474757,0.010648112940781251,0.0026804732682085258,0.018377466995373997,0.05945478136991958,0.06027313549050316,0.1414897174809421,0.8585102825190579
2012-12-19 00:00:00-05:00,0.0017921112816922794,0.010680290756059732,0.0027804589780404754,0.018392660566884583,0.05276721556842507,0.05684524146292858,0.1526965570443441,0.8473034429556558
2012-12-20 00:00:00-05:00,0.001696007759271582,0.010582914946475813,0.002625598809529844,0.018364373551061436,0.05175522307555899,0.05648526030647414,0.22087031934986148,0.7791296806501385
2012-12-21 00:00:00-05:00,0.0015724686785698462,0.010493902693744263,0.002794551093938339,0.018328591478295214,0.05083568303653491,0.0525249394792647,0.09287192546020576,0.9071280745397943
2012-12-24 00:00:00-05:00,0.001548355813453088,0.010548100820901043,0.002719947278925986,0.018263855235779777,0.052064124980972314,0.05317641080805514,0.17734229470753124,0.8226577052924688
2012-12-26 00:00:00-05:00,0.0014574639939410753,0.010509986012489899,0.0028059144271457975,0.018210917423225347,0.05307701444182457,0.0531496583033978,0.2009337632581456,0.7990662367418544
2012-12-27 00:00:00-05:00,0.0014040313007006994,0.010522203927246695,0.0027814426743209358,0.018184953182337597,0.05665543068932462,0.05673639897646797,0.34470383756274625,0.6552961624372539
2012-12-28 00:00:00-05:00,0.0014713222257311041,0.01048288085480714,0.002720727473060556,0.018165778448483084,0.05641508632992484,0.056352349966625644,0.37225135851605756,0.6277486414839424
2012-12-31 00:00:00-05:00,0.0013142397239503721,0.010439441505595625,0.0027525203818065096,0.018218077593059327,0.0592557968276174,0.06151857534001992,0.5366841475858525,0.46331585241414763
2013-01-02 00:00:00-05:00,0.0014425397728176957,0.01046678193785907,0.002787668942705454,0.018080195946477324,0.05841925222267294,0.05591479624956222,0.36325861769516027,0.6367413823048398
2013-01-03 00:00:00-05:00,0.0013134707389306187,0.010305003720293384,0.002880754782125765,0.017962897105009226,0.055820074274343635,0.048966821430206864,0.1387461435001476,0.8612538564998523
2013-01-04 00:00:00-05:00,0.0013043050382611887,0.010371034281409196,0.0028271107153292163,0.01792872432794651,0.057393863379491164,0.050412658018104725,0.25334131890403755,0.7466586810959625
2013-01-07 00:00:00-05:00,0.0014082038448497002,0.010368159372834937,0.0028895715203113353,0.017892154796638436,0.05871771313983237,0.050802730646961496,0.3024111583329603,0.6975888416670397
2013-01-08 00:00:00-05:00,0.0013248393668688662,0.010374873674961638,0.002866154751586839,0.01786716727112755,0.06154233933537905,0.05220266667418576,0.3845164029845466,0.6154835970154534
2013-01-09 00:00:00-05:00,0.0013442946189316238,0.010330214581358754,0.0029676476683142185,0.01781253478200286,0.06430741250245207,0.05167510077840314,0.37289039707302624,0.6271096029269737
2013-01-10 00:00:00-05:00,0.0013787282678847908,0.010338719686004104,0.00287617025714627,0.01789415362728364,0.06029298748713167,0.05374793163218047,0.496726064400002,0.5032739355999981
2013-01-11 00:00:00-05:00,0.0013759207373535065,0.010332778495574403,0.0028821048790000606,0.017978509911299186,0.06400145027619498,0.05845097618400392,0.6441325277630862,0.3558674722369138
2013-01-14 00:00:00-05:00,0.001323479880016962,0.010262476627946987,0.002841806687909646,0.01804903206065092,0.06365539548356472,0.06088140761150273,0.7522965742042063,0.2477034257957938
2013-01-15 00:00:00-05:00,0.0012797218407233568,0.010221362318748933,0.0028694512287565205,0.01808053780096347,0.06600003792585363,0.06247051843292415,0.7856616367202287,0.21433836327977132
2013-01-16 00:00:00-05:00,0.0011608086894460093,0.010133685619768388,0.0028824640723104306,0.018120818804648827,0.06887969646821573,0.06406363118049906,0.8182277516700317,0.18177224832996827
2013-01-17 00:00:00-05:00,0.0009711347753352336,0.01011485961574154,0.0028568454821952696,0.018132574675700737,0.06461319279238799,0.06299179120480561,0.8446925327454391,0.15530746725456096
2013-01-18 00:00:00-05:00,0.0013292856020623576,0.010065127806620649,0.0028478010432820126,0.018036216543104056,0.05818951379170863,0.056821233828641175,0.6574166877434621,0.34258331225653804
2013-01-22 00:00:00-05:00,0.0012513984582850264,0.010000265849700532,0.0028567035699242262,0.018033612947617926,0.05731409950743011,0.05674361168600854,0.7465131257740957,0.2534868742259043
2013-01-23 00:00:00-05:00,0.0013471370878003909,0.009989581690082794,0.002828626997109667,0.018059317545920037,0.0563259768930867,0.056972247345219156,0.8274551534863045,0.17254484651369567
2013-01-24 00:00:00-05:00,0.0013829941004699102,0.010015399507272829,0.002824743067667914,0.01808914092191049,0.05618426183245054,0.0577124034253865,0.869119106060788,0.13088089393921207
2013-01-25 00:00:00-05:00,0.0013156169231245958,0.00995485589968641,0.002835582004872495,0.018085731578584,0.05639951053372266,0.05772640882959601,0.8935554210366667,0.10644457896333333
2013-01-28 00:00:00-05:00,0.0014042982664032545,0.009909209408464178,0.0028122355501182085,0.01807923241037475,0.05611114043502966,0.057227876232715406,0.9126257746098817,0.0873742253901183
2013-01-29 00:00:00-05:00,0.0012480620906284514,0.010273950409634256,0.0027592939275352603,0.01826508508170069,0.06794829851063082,0.06770816913641863,0.34815651013029675,0.6518434898697033
2013-01-30 00:00:00-05:00,0.0012064509540276663,0.01037823646235,0.0028222872289555044,0.01823795084440036,0.06701957485444536,0.06835790272880206,0.48952972457456406,0.510470275425436
2013-01-31 00:00:00-05:00,0.00113186375652041,0.010473892604827915,0.0028569077399839007,0.018257935458011416,0.066646259679006,0.06993836427850879,0.6171733288487012,0.3828266711512988
2013-02-01 00:00:00-05:00,0.0009173313457661814,0.010485158473144279,0.0028189670310737633,0.018260683785523146,0.06895261366726853,0.07106934699227345,0.530632547422793,0.469367452577207
2013-02-04 00:00:00-05:00,0.0011623379752796206,0.010416467234591765,0.0027828077733163007,0.018191075469145716,0.07243418659679089,0.07026412832386139,0.34924498743402016,0.6507550125659798
2013-02-05 00:00:00-05:00,0.0009396344447789546,0.010335772560897453,0.002759069559141532,0.018142726042088598,0.07293121424385371,0.06933116579040581,0.3941495114924331,0.6058504885075668
2013-02-06 00:00:00-05:00,0.0009393676922284037,0.010501300178737261,0.002804810943116283,0.01821316744254135,0.07062691772991596,0.07185007744162823,0.5684467583873815,0.4315532416126185
2013-02-07 00:00:00-05:00,0.0008609177052093513,0.010617307900168505,0.00289929740945071,0.01829948783300852,0.06984060597406636,0.07560870567068426,0.7124568494030848,0.2875431505969152
2013-02-08 00:00:00-05:00,0.000774307333760865,0.010666256409127557,0.002963572507577101,0.018344977517541192,0.0698441744847923,0.07846820602076698,0.7971470265457453,0.2028529734542547
2013-02-11 00:00:00-05:00,0.0007902070183197098,0.010704208895672581,0.0029822312979130637,0.018380293762230018,0.07006339824135163,0.08010695739671622,0.8271700999820045,0.1728299000179954
2013-02-12 00:00:00-05:00,0.0009406701654190377,0.010569422797125402,0.002944023717439722,0.018372909982000193,0.07068563662818736,0.07948058208938001,0.8565126989258033,0.14348730107419672
2013-02-13 00:00:00-05:00,0.0007838385878801576,0.010907743147081943,0.002983142412454821,0.01846441845460912,0.07121960661180028,0.08435591288672556,0.6978268057096151,0.3021731942903849
2013-02-14 00:00:00-05:00,0.001021826801114196,0.011106021800629947,0.0029873573584983755,0.01855143256608439,0.0735828265364221,0.08902487709150962,0.5581840692275976,0.4418159307724024
2013-02-15 00:00:00-05:00,0.0010201582915095068,0.011210979239422455,0.0030279302621399684,0.018611781316265372,0.0718585103876502,0.09133739755451202,0.6926434736737238,0.3073565263262763
2013-02-19 00:00:00-05:00,0.0008611897468990145,0.011021338570800886,0.003052236522015484,0.01854346949921151,0.07273813588828257,0.08953955762385707,0.762106898511621,0.23789310148837903
2013-02-20 00:00:00-05:00,0.0007004662461383056,0.011260830046579686,0.002957661884482478,0.01858967066798371,0.07749536765491855,0.09452208534948268,0.4505127023197185,0.5494872976802815
2013-02-21 00:00:00-05:00,0.0007712879326687925,0.011186532388167126,0.002566629531013192,0.01857688288644752,0.08749407887046237,0.09609605216417513,0.16912543147585898,0.8308745685241411
2013-02-22 00:00:00-05:00,0.0007594931776206819,0.011337341035897267,0.0025122964899268905,0.01855774195832796,0.08600757343764083,0.09650248550505418,0.29635537864962963,0.7036446213503704
2013-02-25 00:00:00-05:00,0.0008109363584870915,0.011460445602538526,0.002578441711886864,0.0185608630367479,0.08618054608616847,0.09723236023182667,0.29900834514415137,0.7009916548558487
2013-02-26 00:00:00-05:00,0.0008322300464391435,0.011557721305794093,0.002475419620063249,0.018568374138833537,0.08674411656627581,0.09819560509909668,0.33997451626093406,0.660025483739066
2013-02-27 00:00:00-05:00,0.0007526893252451865,0.011395687779315091,0.00251267994903616,0.018418882377248102,0.09098586911130746,0.0938659646974839,0.2758031674546774,0.7241968325453226
2013-02-28 00:00:00-05:00,0.0008407199204757646,0.011475235287047008,0.002547819394749543,0.018402203096752705,0.09185290424974164,0.09337712726459232,0.309929067658996,0.690070932341004
2013-03-01 00:00:00-05:00,0.0009836842871807072,0.011328427006927965,0.0025308394172285104,0.018359758121256963,0.09241878042464215,0.09403198214030503,0.4552461208239822,0.5447538791760178
2013-03-04 00:00:00-05:00,0.000845603193593959,0.01119825830406405,0.002543321278298789,0.018352360431509156,0.09495420179023199,0.09663160267389846,0.5842722383183638,0.41572776168163617
2013-03-05 00:00:00-05:00,0.0009384410542660551,0.01123585352026354,0.0025308887174744915,0.01840739738338154,0.09840741364424645,0.1022287195642432,0.6773022524123231,0.32269774758767694
2013-03-06 00:00:00-05:00,0.0010751638388845069,0.011116376486904623,0.002493780930323407,0.018414115352722187,0.10152281059381066,0.10362806335201143,0.7409176725689013,0.25908232743109877
2013-03-07 00:00:00-05:00,0.0010920743575585366,0.010779938499231617,0.002465942022125799,0.018272226750256963,0.10811890788628521,0.10022468923004317,0.7627871065331104,0.23721289346688962
2013-03-08 00:00:00-05:00,0.0009914420394943368,0.010531593364023699,0.0024990773467549942,0.01821198235648503,0.11672375281627631,0.09974705114563896,0.7946864370840294,0.20531356291597064
2013-03-11 00:00:00-04:00,0.0010311795608267153,0.01017294066988328,0.002323035354224745,0.01806926311469573,0.10731256771273859,0.08764820593126783,0.7306515215753823,0.2693484784246177
2013-03-12 00:00:00-04:00,0.0011192485721309554,0.010199305086451147,0.002297644383714955,0.018090048508126393,0.10658203616691359,0.08802196199879603,0.7871021705369421,0.21289782946305785
2013-03-13 00:00:00-04:00,0.0011998673691888246,0.010305622731410781,0.0022900873272940457,0.018121786574673157,0.10591143077080135,0.08980209706816844,0.7801862187607963,0.2198137812392036
2013-03-14 00:00:00-04:00,0.0012032539056151363,0.01047149367804121,0.002338025424323229,0.01817568112812325,0.10583859542100839,0.0919570929242535,0.6591422883685787,0.34085771163142126
2013-03-15 00:00:00-04:00,0.0014074584409257242,0.010435336096096275,0.0022498906640481906,0.018177175814308586,0.10494270143245894,0.0918047499717588,0.7409328103807935,0.25906718961920655
2013-03-18 00:00:00-04:00,0.001345570713764917,0.010558627976732897,0.0022604042716261904,0.018203025646786157,0.10285170207639616,0.09227977458045754,0.7654357333598262,0.23456426664017382
2013-03-19 00:00:00-04:00,0.0013472688652435244,0.010565013187048524,0.002261440000208221,0.018205965484758755,0.10250626327832178,0.09206219603041624,0.8055040791942095,0.1944959208057905
2013-03-20 00:00:00-04:00,0.00122334872775812,0.010427696006160917,0.0022642980763765805,0.01813545524563561,0.1029152119219842,0.08869825989410435,0.8284155701057674,0.1715844298942326
2013-03-21 00:00:00-04:00,0.0013079200255338374,0.010240165480505787,0.0022134564390731853,0.018018095791525558,0.10319859761124735,0.08286000312448562,0.8451271099321734,0.15487289006782656
2013-03-22 00:00:00-04:00,0.0011106758525682191,0.010928126055649166,0.0022429842412459516,0.018275805205377693,0.10677995954644424,0.09665516774421103,0.4313008534470714,0.5686991465529285
2013-03-25 00:00:00-04:00,0.0011235909661196529,0.010909034684557985,0.0022545330708944426,0.018264044212801218,0.10612445515463259,0.0958249979148829,0.49949115505723884,0.500508844942761
2013-03-26 00:00:00-04:00,0.0009291804979857682,0.011039340460010039,0.0022594538549676295,0.018257435965685277,0.10362434054671868,0.09365676089705162,0.48710073887948585,0.5128992611205142
2013-03-27 00:00:00-04:00,0.0007223254395950987,0.010910117409090581,0.0023130309751230533,0.018260222311433802,0.1018997782348735,0.09444516949009532,0.624831713188688,0.3751682868113121
2013-03-28 00:00:00-04:00,0.0005625193007003074,0.010995288054774939,0.002411110706870122,0.01827008962406939,0.09539242667687473,0.08999138749271238,0.7240746773400755,0.27592532265992453
2013-04-01 00:00:00-04:00,0.0006229431932021463,0.010896941759567432,0.002462869062003901,0.018278219873642962,0.09431659956621802,0.08731932707812995,0.7711099213716474,0.22889007862835267
2013-04-02 00:00:00-04:00,0.0005565193053959738,0.010738689632982686,0.002423764363048178,0.018237776809990724,0.0919838720170064,0.08226148045371844,0.8128535794361548,0.18714642056384517
2013-04-03 00:00:00-04:00,0.0004733983513428998,0.010622244733756435,0.0024460880275312892,0.0182518562360136,0.08910150679678137,0.07768014909649755,0.8423399319890253,0.15766006801097468
2013-04-04 00:00:00-04:00,0.0003470996338054181,0.010554865273277281,0.00236015838501927,0.01824661684945313,0.08934308616066289,0.07820009862917103,0.8456227714594479,0.15437722854055216
2013-04-05 00:00:00-04:00,0.00042368223590443974,0.010508399122681025,0.0025268023882416752,0.018211564403153566,0.09011429442203875,0.07968118399761384,0.8264273864172507,0.17357261358274934
2013-04-08 00:00:00-04:00,0.0002147642791188979,0.010717020661630938,0.0028077462556275004,0.0182444712168021,0.08722267711377457,0.08193418321079758,0.7548955734858513,0.24510442651414868
2013-04-09 00:00:00-04:00,0.00016830641226949866,0.010639062845012065,0.0026383622260479057,0.018180306443819516,0.08815893756832849,0.08301069647986774,0.8050132952936572,0.19498670470634294
2013-04-10 00:00:00-04:00,0.00024161545324718597,0.010624015219036456,0.002831189519766667,0.018136246277124353,0.08824806831347086,0.08455347951130418,0.7939503737601464,0.2060496262398536
2013-04-11 00:00:00-04:00,0.00041828139967416594,0.01087117420397416,0.0030962372820127915,0.01819755730217918,0.08566226872844948,0.09002678524556731,0.7153933822703008,0.28460661772969925
2013-04-12 00:00:00-04:00,0.0009441236238436803,0.011888329276928705,0.0030543811366770175,0.019105011208976806,0.06431793174461141,0.11622566953726947,0.6690103899419955,0.3309896100580045
2013-04-15 00:00:00-04:00,0.0008136213495780455,0.011727979316623628,0.00284878074080689,0.019025394653349206,0.06075018991748731,0.10783581761156256,0.7241860433034458,0.2758139566965543
2013-04-16 00:00:00-04:00,0.0006978104020874597,0.01096142822150048,0.002337969929465304,0.018607743197892344,0.09777736317422783,0.11120955610500971,0.0705267090043512,0.9294732909956487
2013-04-17 00:00:00-04:00,0.0005919466316238877,0.010861888269319836,0.002532078453117943,0.018608915517318313,0.09990766716301577,0.107927575123598,0.06048186069712288,0.9395181393028771
2013-04-18 00:00:00-04:00,0.0005087379359483144,0.010765257005457026,0.002318679890029883,0.018559611117255105,0.10110048221380788,0.10521585840967691,0.13175667847643954,0.8682433215235604
2013-04-19 00:00:00-04:00,0.001093579524121441,0.013489484200710285,0.006276520727536268,0.027252086461437182,0.031251785326890394,0.24846171155265753,0.0021516832356147206,0.9978483167643852
2013-04-22 00:00:00-04:00,0.0003901830166704218,0.011239830231731964,0.003414740536971294,0.02040358416671325,0.08163877873912864,0.12955578234759332,0.18962278997576582,0.8103772100242342
2013-04-23 00:00:00-04:00,0.00038216411255696483,0.011350848399334468,0.003559319057769863,0.020368117732445845,0.0809802238851549,0.1304643444191043,0.281562269925376,0.7184377300746241
2013-04-24 00:00:00-04:00,0.00043993345338178436,0.011471870983572757,0.0036879163750724087,0.02048394660769747,0.08357335141776034,0.14166520549657635,0.46243894444118205,0.5375610555588178
2013-04-25 00:00:00-04:00,0.00039633079198281214,0.011393951133433628,0.003674182768213814,0.02054035652770117,0.08998929486804837,0.15370139734068164,0.6634618364865882,0.33653816351341176
2013-04-26 00:00:00-04:00,0.00031344863313820584,0.010954253492853247,0.003377713526942977,0.020093735645812412,0.09445087090298557,0.13718322970404023,0.6233677169590203,0.3766322830409796
2013-04-29 00:00:00-04:00,0.0001359148052360936,0.011025548882060551,0.003425584183554551,0.02011540497168329,0.09332458352253527,0.13800445033625264,0.6566890959381071,0.343310904061893
2013-04-30 00:00:00-04:00,0.0002122821231174331,0.011371596769942802,0.0036521517279990063,0.02035511888162727,0.08988864552617414,0.14948423279994383,0.6608378797891747,0.33916212021082537
2013-05-01 00:00:00-04:00,0.00034359665924279696,0.011535400337681988,0.0037628685392204863,0.020761759638077727,0.0899590313431331,0.16845118406033927,0.8012861786159645,0.19871382138403537
2013-05-02 00:00:00-04:00,3.453987279133211e-05,0.011205543977723062,0.0036089751832890883,0.02033960404116916,0.09365964622820626,0.15165881027000183,0.7745690952026847,0.22543090479731523
2013-05-03 00:00:00-04:00,0.0005293315188775103,0.013786956718849478,0.02142733973287669,0.030250608658245335,0.049052034932581395,0.9999999952388517,0.9235385174803196,0.07646148251968046
2013-05-06 00:00:00-04:00,0.0006469697309398216,0.01404292879219746,0.027566657761794074,0.028622256756002298,0.036814607193273015,0.9999994636554405,0.9215318001986547,0.07846819980134535
2013-05-07 00:00:00-04:00,0.0006777522138566958,0.014000899762841697,0.027930787901730487,0.02837947100258809,0.03709129389076108,0.9999994636554409,0.9902094476043621,0.009790552395637843
2013-05-08 00:00:00-04:00,0.000665971749154712,0.013992494718698891,0.027971938448090986,0.028332576639106856,0.03718362013450538,0.9999994636554409,0.9815610863958267,0.018438913604173265
2013-05-09 00:00:00-04:00,0.0007382866354716248,0.014042703349474142,0.028006456840887786,0.028474944260686186,0.03634009423387991,0.9999994636554409,0.9691681148574848,0.030831885142515166
2013-05-10 00:00:00-04:00,0.0007307233722971836,0.014052477572425183,0.028189572924853187,0.028435337672005765,0.036043226549935435,0.9999994636554409,0.9904356289706481,0.009564371029352
2013-05-13 00:00:00-04:00,0.0007469674887376167,0.014055181742615584,0.02836302745067973,0.028431339956800243,0.03569173282790007,0.9999994636554409,0.9885776092410986,0.011422390758901432
2013-05-14 00:00:00-04:00,0.0007454234074552542,0.014060652184666593,0.028565223909594123,0.02838969710321566,0.03537559710556911,0.9999994636554409,0.9904907071837356,0.00950929281626447
2013-05-15 00:00:00-04:00,0.0009518780174865389,0.01409519535478733,0.02881225934607134,0.02865108687643552,0.034112819024459,0.9999994636554409,0.9426900034802383,0.05730999651976176
2013-05-16 00:00:00-04:00,0.0009813776515084091,0.014089653946540307,0.02922849440305738,0.0286319166722119,0.033500154632246364,0.9999994636554409,0.9910498915879727,0.008950108412027286
2013-05-17 00:00:00-04:00,0.0009751225101330923,0.014095702486625563,0.02943775914209231,0.028564610105116583,0.03322157060414773,0.9999994636554409,0.9912708070337687,0.008729192966231382
2013-05-20 00:00:00-04:00,0.0011872752654931307,0.014032469237242965,0.02961426679399948,0.028691115684858125,0.03283210499099393,0.9999994636554409,0.958458916855333,0.04154108314466696
2013-05-21 00:00:00-04:00,0.0011963720749240594,0.014025945489482215,0.029675706273903417,0.02869270381846498,0.032770196058779205,0.9999994636554409,0.9915779969631847,0.008422003036815208
2013-05-22 00:00:00-04:00,0.0011549081908021313,0.013981769584444121,0.029666699125457118,0.028642287870692777,0.03317011978100826,0.9999994636554409,0.9818365068823031,0.01816349311769696
2013-05-23 00:00:00-04:00,0.0011273715954861355,0.013992299926039816,0.02959175426124061,0.028601242691227387,0.03331518714359955,0.9999994636554409,0.9914338779029109,0.008566122097089096
2013-05-24 00:00:00-04:00,0.001017683868991536,0.013946483015422301,0.029450859304725185,0.02832876257793092,0.034411214134236104,0.9999994636554409,0.9908998810577623,0.009100118942237737
2013-05-28 00:00:00-04:00,0.0009050875229375257,0.013789130779983023,0.02868769294060265,0.02909713301069893,0.034467879498177326,0.9999994636554409,0.9898342686745185,0.010165731325481455
2013-05-29 00:00:00-04:00,0.0009510678616990938,0.013506930941926912,0.018318006382824163,0.029936420703822953,0.05637040240694714,0.9999994636554409,0.9770350002682643,0.0229649997317358
2013-05-30 00:00:00-04:00,0.0008116795736710441,0.013337730952465226,0.016517949667349884,0.02940239877556979,0.06584380145852986,0.9999994636554409,0.9745518760386713,0.025448123961328582
2013-05-31 00:00:00-04:00,0.0008583604998611884,0.012966069960144249,0.013546686610438155,0.028345271994692715,0.0883245187708126,0.9999994636554409,0.9633262805575639,0.036673719442436054
2013-06-03 00:00:00-04:00,0.0006893494024413797,0.013056149845185591,0.01453195036980488,0.028188770171282008,0.08367041443354657,0.9999994636554409,0.9473998251268771,0.05260017487312281
2013-06-04 00:00:00-04:00,0.000956141148600773,0.013333387026550955,0.03610127168332369,0.0243122943223214,0.030025483978171733,0.9999994636554409,0.9882251799535795,0.011774820046420425
2013-06-05 00:00:00-04:00,0.0009688509762227486,0.013327303922038323,0.03611783978443709,0.02430302444302734,0.030042544236613188,0.9999994636554409,0.9961366106050376,0.003863389394962537
2013-06-06 00:00:00-04:00,0.0008197847700018412,0.01339612193527649,0.036086234949717695,0.02429544565628967,0.030067732396039836,0.9999994636554409,0.9956847897883976,0.004315210211602361
2013-06-07 00:00:00-04:00,0.000731918531374934,0.013276509852964186,0.03626224136576546,0.024181892611443618,0.030147329742419408,0.9999994636554409,0.9896434938149813,0.01035650618501879
2013-06-10 00:00:00-04:00,0.0008141490366957297,0.013371682393617612,0.03625224719264793,0.024385165170121157,0.029515821945407035,0.9999994636554409,0.9374808952817388,0.06251910471826111
2013-06-11 00:00:00-04:00,0.0007448578137831725,0.013352466536241883,0.036396977281432305,0.024186916548297476,0.029820030649463657,0.9999994636554409,0.9958662182328976,0.004133781767102403
2013-06-12 00:00:00-04:00,0.0007504762728196962,0.013344587279780282,0.03637084461044001,0.024186082547860432,0.029866098012365026,0.9999994636554409,0.9964536502696804,0.0035463497303197147
2013-06-13 00:00:00-04:00,0.0005645650758308399,0.013223548680985783,0.0349909188193817,0.024084781365920446,0.032735771252109476,0.9999994636554409,0.995147400685087,0.004852599314913022
2013-06-14 00:00:00-04:00,0.0007875815999648494,0.013280181432937853,0.03450509905808141,0.02429252930987905,0.03338828565190859,0.9999994636554409,0.8591742755662819,0.14082572443371816
2013-06-17 00:00:00-04:00,0.0007474522380713866,0.01328777133421414,0.034047736935965085,0.024362399689732462,0.034154159024831376,0.9999994636554409,0.995530437594375,0.004469562405625103
2013-06-18 00:00:00-04:00,0.0006917742011728461,0.013211516612676428,0.03363026886772013,0.024345306577352288,0.03525103239037911,0.9999994636554409,0.9747156251931528,0.02528437480684714
2013-06-19 00:00:00-04:00,0.0006288298758896978,0.013184694923090448,0.031950814127222386,0.024574452311067276,0.03800521129776044,0.9999994636554409,0.9896994439608897,0.010300556039110273
2013-06-20 00:00:00-04:00,0.0004565749552542151,0.013137352421900145,0.03040566443465759,0.024517892366417667,0.041953781022670215,0.9999994636554409,0.9916980468160924,0.008301953183907619
2013-06-21 00:00:00-04:00,0.00040351901145778776,0.013289823294958118,0.03043887416724529,0.024862452111238453,0.04066409880602931,0.9999994636554409,0.9874755695645555,0.012524430435444493
2013-06-24 00:00:00-04:00,0.00042726678286575886,0.013049633685663179,0.030527964119683094,0.02407753123554774,0.043524278758909365,0.9999994636554409,0.9917132033854889,0.00828679661451113
2013-06-25 00:00:00-04:00,0.00018514576081349023,0.012934864964202476,0.027391526000792393,0.02404401161452323,0.0528921127571774,0.9999994636554409,0.987685583587749,0.01231441641225091
2013-06-26 00:00:00-04:00,0.0003200176154052628,0.01280269659339791,0.027485529065016626,0.023890013723081204,0.0536670064171115,0.9999994636554409,0.9752159287807052,0.02478407121929485
2013-06-27 00:00:00-04:00,0.00025318774294969736,0.012739019164921067,0.027260609848972706,0.02373391828600827,0.055583408095891865,0.9999994636554409,0.9742708744031342,0.025729125596865902
2013-06-28 00:00:00-04:00,0.00017477118888694368,0.012705244416609682,0.02647433584607959,0.02363666517828895,0.058916928175783104,0.9999994636554409,0.9827013351828866,0.01729866481711343
